date,hour,demand_mw,temperature_c,is_holiday
2018-01-01,2,1467.94,24.5,1
2018-01-01,3,1483.37,24.3,1
2018-01-01,4,1461.27,24.5,1
2018-01-01,5,1438.91,24.4,1
2018-01-01,6,1431.84,24.5,1
2018-01-01,7,1371.69,24.6,1
2018-01-01,8,1230.07,24.8,1
2018-01-01,9,1216.2,25.6,1
2018-01-01,10,1223.11,26.7,1
2018-01-01,11,1231.31,28.6,1
2018-01-01,12,1281.69,30.1,1
2018-01-01,13,1258.99,31.0,1
2018-01-01,14,1276.49,31.2,1
2018-01-01,15,1346.39,30.9,1
2018-01-01,16,1332.23,30.3,1
2018-01-01,17,1287.29,29.6,1
2018-01-01,18,1301.89,28.5,1
2018-01-01,19,1403.2,26.8,1
2018-01-01,20,1638.91,26.1,1
2018-01-01,21,1721.43,25.8,1
2018-01-01,22,1735.03,25.5,1
2018-01-01,23,1704.23,25.1,1
2018-01-01,24,1579.72,24.5,1
2018-01-02,1,1531.12,24.3,0
2018-01-02,2,1429.5,24.4,0
2018-01-02,3,1451.8,23.1,0
2018-01-02,4,1342.3,22.8,0
2018-01-02,5,1295.4,23.1,0
2018-01-02,6,1363.3,23.0,0
2018-01-02,7,1377.8,22.6,0
2018-01-02,8,1285.4,23.2,0
2018-01-02,9,1288.0,24.2,0
2018-01-02,10,1372.6,26.0,0
2018-01-02,11,1395.1,28.2,0
2018-01-02,12,1367.3,30.4,0
2018-01-02,13,1443.3,31.2,0
2018-01-02,14,1470.8,30.5,0
2018-01-02,15,1510.2,30.5,0
2018-01-02,16,1494.7,30.2,0
2018-01-02,17,1511.7,29.4,0
2018-01-02,18,1491.1,28.0,0
2018-01-02,19,1564.9,26.6,0
2018-01-02,20,1786.47,26.0,0
2018-01-02,21,1820.02,25.7,0
2018-01-02,22,1922.9,25.1,0
2018-01-02,23,1836.2,24.5,0
2018-01-02,24,1675.9,24.0,0
2018-01-03,1,1596.6,22.8,0
2018-01-03,2,1494.0,23.0,0
2018-01-03,3,1450.42,22.6,0
2018-01-03,4,1476.72,22.4,0
2018-01-03,5,1440.02,22.0,0
2018-01-03,6,1458.52,21.6,0
2018-01-03,7,1486.02,21.5,0
2018-01-03,8,1406.76,21.9,0
2018-01-03,9,1391.33,24.0,0
2018-01-03,10,1331.87,26.5,0
2018-01-03,11,1380.83,28.8,0
2018-01-03,12,1429.93,30.5,0
2018-01-03,13,1501.15,31.5,0
2018-01-03,14,1505.49,31.7,0
2018-01-03,15,1477.25,31.4,0
2018-01-03,16,1538.38,31.0,0
2018-01-03,17,1488.16,29.9,0
2018-01-03,18,1442.2,28.9,0
2018-01-03,19,1564.4,27.3,0
2018-01-03,20,1835.21,26.5,0
2018-01-03,21,1886.98,26.1,0
2018-01-03,22,1904.63,25.2,0
2018-01-03,23,1846.04,24.8,0
2018-01-03,24,1693.68,24.4,0
2018-01-04,1,1611.49,22.6,0
2018-01-04,2,1550.56,22.5,0
2018-01-04,3,1519.09,22.1,0
2018-01-04,4,1481.3,22.0,0
2018-01-04,5,1486.57,21.5,0
2018-01-04,6,1489.69,21.4,0
2018-01-04,7,1537.65,20.9,0
2018-01-04,8,1485.12,21.4,0
2018-01-04,9,1362.63,23.6,0
2018-01-04,10,1446.84,27.0,0
2018-01-04,11,1490.23,29.9,0
2018-01-04,12,1507.37,31.6,0
2018-01-04,13,1526.98,31.6,0
2018-01-04,14,1535.56,31.0,0
2018-01-04,15,1548.1,30.9,0
2018-01-04,16,1552.8,30.5,0
2018-01-04,17,1539.2,29.5,0
2018-01-04,18,1508.1,28.6,0
2018-01-04,19,1552.7,27.1,0
2018-01-04,20,1804.24,26.1,0
2018-01-04,21,1892.74,25.4,0
2018-01-04,22,1880.44,24.5,0
2018-01-04,23,1802.23,23.9,0
2018-01-04,24,1704.64,23.4,0
2018-01-05,1,1584.84,22.0,0
2018-01-05,2,1547.24,22.0,0
2018-01-05,3,1536.87,21.5,0
2018-01-05,4,1546.98,21.5,0
2018-01-05,5,1494.68,21.1,0
2018-01-05,6,1534.09,20.8,0
2018-01-05,7,1506.19,20.5,0
2018-01-05,8,1422.14,21.1,0
2018-01-05,9,1444.6,23.6,0
2018-01-05,10,1457.21,26.7,0
2018-01-05,11,1476.9,28.9,0
2018-01-05,12,1520.56,30.2,0
2018-01-05,13,1510.9,30.4,0
2018-01-05,14,1525.81,30.2,0
2018-01-05,15,1577.05,29.9,0
2018-01-05,16,1573.27,29.6,0
2018-01-05,17,1626.15,28.8,0
2018-01-05,18,1587.57,27.7,0
2018-01-05,19,1620.0,26.4,0
2018-01-05,20,1805.84,25.9,0
2018-01-05,21,1905.02,25.6,0
2018-01-05,22,1913.52,25.4,0
2018-01-05,23,1889.54,25.0,0
2018-01-05,24,1852.52,24.7,0
2018-01-06,1,1706.25,24.0,0
2018-01-06,2,1457.65,23.5,0
2018-01-06,3,1559.6,23.1,0
2018-01-06,4,1493.72,22.7,0
2018-01-06,5,1515.44,22.3,0
2018-01-06,6,1528.25,22.2,0
2018-01-06,7,1511.5,22.0,0
2018-01-06,8,1421.44,22.5,0
2018-01-06,9,1348.5,24.0,0
2018-01-06,10,1368.95,26.3,0
2018-01-06,11,1372.74,28.5,0
2018-01-06,12,1376.65,30.4,0
2018-01-06,13,1382.85,30.7,0
2018-01-06,14,1404.25,30.7,0
2018-01-06,15,1425.15,29.9,0
2018-01-06,16,1447.15,29.5,0
2018-01-06,17,1447.15,29.1,0
2018-01-06,18,1493.15,28.3,0
2018-01-06,19,1522.39,27.0,0
2018-01-06,20,1759.74,26.6,0
2018-01-06,21,1771.16,26.4,0
2018-01-06,22,1916.82,26.2,0
2018-01-06,23,1838.2,26.1,0
2018-01-06,24,1754.57,25.9,0
2018-01-07,1,1652.29,25.6,0
2018-01-07,2,1630.2,25.5,0
2018-01-07,3,1576.8,25.2,0
2018-01-07,4,1591.9,25.1,0
2018-01-07,5,1555.6,24.9,0
2018-01-07,6,1575.5,24.4,0
2018-01-07,7,1604.9,24.1,0
2018-01-07,8,1537.7,24.7,0
2018-01-07,9,1445.2,25.6,0
2018-01-07,10,1392.8,26.8,0
2018-01-07,11,1336.4,28.5,0
2018-01-07,12,1327.1,30.1,0
2018-01-07,13,1364.8,31.4,0
2018-01-07,14,1398.9,31.5,0
2018-01-07,15,1459.2,30.5,0
2018-01-07,16,1463.1,29.3,0
2018-01-07,17,1502.6,28.6,0
2018-01-07,18,1491.4,27.5,0
2018-01-07,19,1541.8,26.6,0
2018-01-07,20,1808.63,26.2,0
2018-01-07,21,1844.34,25.9,0
2018-01-07,22,1873.4,25.6,0
2018-01-07,23,1827.1,25.5,0
2018-01-07,24,1707.9,25.2,0
2018-01-08,1,1638.8,25.3,0
2018-01-08,2,1604.6,25.2,0
2018-01-08,3,1560.9,25.0,0
2018-01-08,4,1577.1,24.8,0
2018-01-08,5,1524.2,24.6,0
2018-01-08,6,1540.7,24.4,0
2018-01-08,7,1562.4,24.2,0
2018-01-08,8,1511.3,24.5,0
2018-01-08,9,1562.1,25.6,0
2018-01-08,10,1577.3,27.6,0
2018-01-08,11,1586.3,29.4,0
2018-01-08,12,1662.2,30.5,0
2018-01-08,13,1683.3,30.6,0
2018-01-08,14,1660.9,30.2,0
2018-01-08,15,1742.9,29.5,0
2018-01-08,16,1696.8,30.0,0
2018-01-08,17,1688.0,29.4,0
2018-01-08,18,1696.0,28.2,0
2018-01-08,19,1716.4,27.1,0
2018-01-08,20,1891.42,26.7,0
2018-01-08,21,1934.93,26.4,0
2018-01-08,22,2060.3,26.1,0
2018-01-08,23,1918.4,25.8,0
2018-01-08,24,1761.2,25.4,0
2018-01-09,1,1827.8,25.3,0
2018-01-09,2,1637.4,25.4,0
2018-01-09,3,1656.75,25.0,0
2018-01-09,4,1585.8,24.8,0
2018-01-09,5,1593.19,24.6,0
2018-01-09,6,1707.81,24.6,0
2018-01-09,7,1664.83,24.6,0
2018-01-09,8,1484.53,24.8,0
2018-01-09,9,1550.09,25.3,0
2018-01-09,10,1583.56,26.0,0
2018-01-09,11,1629.47,28.0,0
2018-01-09,12,1659.38,30.1,0
2018-01-09,13,1608.37,30.3,0
2018-01-09,14,1616.45,30.5,0
2018-01-09,15,1633.24,30.1,0
2018-01-09,16,1644.99,29.6,0
2018-01-09,17,1659.52,29.0,0
2018-01-09,18,1653.17,28.0,0
2018-01-09,19,1764.3,27.0,0
2018-01-09,20,1712.16,26.5,0
2018-01-09,21,1762.76,26.4,0
2018-01-09,22,2015.94,26.2,0
2018-01-09,23,1910.1,25.9,0
2018-01-09,24,1861.05,25.5,0
2018-01-10,1,1811.9,25.4,0
2018-01-10,2,1758.84,25.4,0
2018-01-10,3,1656.77,25.3,0
2018-01-10,4,1661.5,25.1,0
2018-01-10,5,1649.16,24.7,0
2018-01-10,6,1657.88,24.6,0
2018-01-10,7,1741.98,24.6,0
2018-01-10,8,1620.15,25.0,0
2018-01-10,9,1555.3,26.1,0
2018-01-10,10,1557.29,27.6,0
2018-01-10,11,1608.28,28.8,0
2018-01-10,12,1632.96,29.7,0
2018-01-10,13,1611.2,29.9,0
2018-01-10,14,1643.57,29.6,0
2018-01-10,15,1658.0,29.7,0
2018-01-10,16,1649.61,29.4,0
2018-01-10,17,1664.01,29.0,0
2018-01-10,18,1786.17,28.0,0
2018-01-10,19,1702.6,26.7,0
2018-01-10,20,1934.54,26.4,0
2018-01-10,21,2042.61,26.1,0
2018-01-10,22,2031.29,26.0,0
2018-01-10,23,1979.88,25.8,0
2018-01-10,24,1856.21,25.5,0
2018-01-11,1,1769.16,25.1,0
2018-01-11,2,1748.63,25.0,0
2018-01-11,3,1674.74,24.6,0
2018-01-11,4,1658.65,24.2,0
2018-01-11,5,1638.4,24.1,0
2018-01-11,6,1645.2,24.1,0
2018-01-11,7,1666.37,24.0,0
2018-01-11,8,1580.92,24.8,0
2018-01-11,9,1506.11,25.6,0
2018-01-11,10,1545.99,27.3,0
2018-01-11,11,1564.8,29.0,0
2018-01-11,12,1560.81,29.9,0
2018-01-11,13,1575.17,30.0,0
2018-01-11,14,1578.39,30.2,0
2018-01-11,15,1588.32,29.4,0
2018-01-11,16,1617.61,29.2,0
2018-01-11,17,1611.89,29.0,0
2018-01-11,18,1668.8,27.9,0
2018-01-11,19,1691.86,27.0,0
2018-01-11,20,1902.67,26.5,0
2018-01-11,21,2005.98,26.2,0
2018-01-11,22,2017.2,26.0,0
2018-01-11,23,1852.04,25.8,0
2018-01-11,24,1866.58,25.5,0
2018-01-12,1,1795.1,25.0,0
2018-01-12,2,1720.17,24.6,0
2018-01-12,3,1729.75,24.2,0
2018-01-12,4,1666.19,24.1,0
2018-01-12,5,1638.59,24.0,0
2018-01-12,6,1638.11,23.8,0
2018-01-12,7,1685.12,23.8,0
2018-01-12,8,1576.53,24.1,0
2018-01-12,9,1517.27,25.0,0
2018-01-12,10,1555.6,26.8,0
2018-01-12,11,1579.12,28.5,0
2018-01-12,12,1544.16,30.2,0
2018-01-12,13,1575.47,31.0,0
2018-01-12,14,1574.33,32.0,0
2018-01-12,15,1581.51,31.7,0
2018-01-12,16,1627.68,29.8,0
2018-01-12,17,1714.88,28.5,0
2018-01-12,18,1688.48,27.5,0
2018-01-12,19,1599.51,26.9,0
2018-01-12,20,1970.93,26.5,0
2018-01-12,21,2005.09,26.1,0
2018-01-12,22,2031.37,25.9,0
2018-01-12,23,1946.46,25.6,0
2018-01-12,24,1875.96,25.2,0
2018-01-13,1,1795.42,24.6,0
2018-01-13,2,1734.05,24.4,0
2018-01-13,3,1673.58,23.9,0
2018-01-13,4,1628.43,23.5,0
2018-01-13,5,1639.23,23.3,0
2018-01-13,6,1654.05,23.0,0
2018-01-13,7,1622.73,22.8,0
2018-01-13,8,1595.23,23.0,0
2018-01-13,9,1453.56,24.5,0
2018-01-13,10,1450.57,26.4,0
2018-01-13,11,1470.19,28.8,0
2018-01-13,12,1624.59,30.9,0
2018-01-13,13,1363.25,31.8,0
2018-01-13,14,1429.44,31.4,0
2018-01-13,15,1484.98,29.5,0
2018-01-13,16,1498.98,29.1,0
2018-01-13,17,1535.87,28.6,0
2018-01-13,18,1512.75,27.9,0
2018-01-13,19,1623.82,26.8,0
2018-01-13,20,1843.43,26.5,0
2018-01-13,21,1979.83,26.1,0
2018-01-13,22,1984.36,25.8,0
2018-01-13,23,1929.67,25.5,0
2018-01-13,24,1812.74,25.0,0
2018-01-14,1,1833.71,24.7,0
2018-01-14,2,1672.5,24.7,0
2018-01-14,3,1703.59,24.4,0
2018-01-14,4,1620.44,24.1,0
2018-01-14,5,1581.74,23.9,0
2018-01-14,6,1572.74,24.0,0
2018-01-14,7,1526.33,24.2,0
2018-01-14,8,1486.1,24.2,0
2018-01-14,9,1455.9,25.0,0
2018-01-14,10,1394.77,26.5,0
2018-01-14,11,1364.6,28.5,0
2018-01-14,12,1329.47,30.4,0
2018-01-14,13,1360.65,31.6,0
2018-01-14,14,1407.04,32.1,0
2018-01-14,15,1544.22,30.0,0
2018-01-14,16,1454.32,29.9,0
2018-01-14,17,1481.82,29.3,0
2018-01-14,18,1510.72,28.2,0
2018-01-14,19,1536.85,27.2,0
2018-01-14,20,1858.44,26.7,0
2018-01-14,21,1911.99,26.5,0
2018-01-14,22,1940.05,26.2,0
2018-01-14,23,1871.15,25.9,0
2018-01-14,24,1728.8,25.6,0
2018-01-15,1,1640.04,25.0,0
2018-01-15,2,1582.88,25.0,0
2018-01-15,3,1551.79,24.6,0
2018-01-15,4,1527.45,24.5,0
2018-01-15,5,1525.08,24.5,0
2018-01-15,6,1554.28,24.5,0
2018-01-15,7,1668.17,24.5,0
2018-01-15,8,1568.65,24.7,0
2018-01-15,9,1462.16,25.5,0
2018-01-15,10,1508.21,27.0,0
2018-01-15,11,1526.14,28.5,0
2018-01-15,12,1543.84,30.1,0
2018-01-15,13,1577.48,30.0,0
2018-01-15,14,1545.61,30.5,0
2018-01-15,15,1578.26,30.0,0
2018-01-15,16,1593.36,29.9,0
2018-01-15,17,1652.34,29.0,0
2018-01-15,18,1673.86,28.1,0
2018-01-15,19,1716.47,27.2,0
2018-01-15,20,1935.91,26.7,0
2018-01-15,21,1987.15,26.5,0
2018-01-15,22,2001.87,26.3,0
2018-01-15,23,1824.7,26.1,0
2018-01-15,24,1825.13,26.0,0
2018-01-16,1,1755.71,25.5,0
2018-01-16,2,1613.41,25.3,0
2018-01-16,3,1671.79,25.4,0
2018-01-16,4,1634.68,25.2,0
2018-01-16,5,1623.48,25.1,0
2018-01-16,6,1652.58,24.9,0
2018-01-16,7,1735.35,24.5,0
2018-01-16,8,1601.69,24.6,0
2018-01-16,9,1498.9,25.9,0
2018-01-16,10,1555.36,27.4,0
2018-01-16,11,1556.87,29.0,0
2018-01-16,12,1576.52,30.0,0
2018-01-16,13,1607.9,30.5,0
2018-01-16,14,1593.24,29.6,0
2018-01-16,15,1648.78,29.7,0
2018-01-16,16,1630.77,29.0,0
2018-01-16,17,1643.6,28.5,0
2018-01-16,18,1669.85,27.9,0
2018-01-16,19,1693.95,27.1,0
2018-01-16,20,1968.29,26.8,0
2018-01-16,21,2012.41,26.5,0
2018-01-16,22,2034.05,26.4,0
2018-01-16,23,1942.85,26.0,0
2018-01-16,24,1855.93,25.7,0
2018-01-17,1,1805.73,25.0,0
2018-01-17,2,1691.74,25.0,0
2018-01-17,3,1657.34,24.7,0
2018-01-17,4,1619.94,24.5,0
2018-01-17,5,1611.15,24.2,0
2018-01-17,6,1646.55,24.0,0
2018-01-17,7,1739.83,23.7,0
2018-01-17,8,1542.07,24.0,0
2018-01-17,9,1490.93,25.6,0
2018-01-17,10,1552.51,27.6,0
2018-01-17,11,1530.54,29.6,0
2018-01-17,12,1547.64,31.0,0
2018-01-17,13,1575.47,30.5,0
2018-01-17,14,1607.81,30.8,0
2018-01-17,15,1636.11,31.0,0
2018-01-17,16,1651.14,29.6,0
2018-01-17,17,1766.83,29.8,0
2018-01-17,18,1702.53,29.2,0
2018-01-17,19,1773.21,28.0,0
2018-01-17,20,1956.28,27.2,0
2018-01-17,21,2020.57,27.0,0
2018-01-17,22,2044.0,26.6,0
2018-01-17,23,1969.19,26.4,0
2018-01-17,24,1855.81,26.1,0
2018-01-18,1,1896.41,25.1,0
2018-01-18,2,1733.19,25.0,0
2018-01-18,3,1686.53,24.5,0
2018-01-18,4,1652.38,24.4,0
2018-01-18,5,1653.45,24.1,0
2018-01-18,6,1685.57,23.9,0
2018-01-18,7,1704.73,23.7,0
2018-01-18,8,1597.1,24.0,0
2018-01-18,9,1532.11,25.6,0
2018-01-18,10,1515.58,27.8,0
2018-01-18,11,1574.56,29.5,0
2018-01-18,12,1590.06,30.9,0
2018-01-18,13,1631.89,31.5,0
2018-01-18,14,1602.54,31.1,0
2018-01-18,15,1639.19,30.2,0
2018-01-18,16,1650.78,29.9,0
2018-01-18,17,1688.85,29.5,0
2018-01-18,18,1707.93,28.5,0
2018-01-18,19,1854.53,27.5,0
2018-01-18,20,1960.85,26.9,0
2018-01-18,21,2056.13,26.8,0
2018-01-18,22,2048.54,26.6,0
2018-01-18,23,1981.24,26.4,0
2018-01-18,24,1877.33,26.0,0
2018-01-19,1,1802.31,25.5,0
2018-01-19,2,1745.28,25.5,0
2018-01-19,3,1699.92,25.3,0
2018-01-19,4,1679.69,25.0,0
2018-01-19,5,1662.96,24.6,0
2018-01-19,6,1703.62,24.5,0
2018-01-19,7,1764.57,24.5,0
2018-01-19,8,1628.65,25.0,0
2018-01-19,9,1520.61,25.7,0
2018-01-19,10,1554.14,27.4,0
2018-01-19,11,1622.84,29.4,0
2018-01-19,12,1618.99,30.9,0
2018-01-19,13,1638.54,31.2,0
2018-01-19,14,1611.96,31.4,0
2018-01-19,15,1638.69,29.5,0
2018-01-19,16,1635.74,29.8,0
2018-01-19,17,1680.83,29.5,0
2018-01-19,18,1687.49,28.5,0
2018-01-19,19,1683.29,27.2,0
2018-01-19,20,1833.86,26.8,0
2018-01-19,21,2016.78,26.5,0
2018-01-19,22,2024.3,26.3,0
2018-01-19,23,1975.71,26.0,0
2018-01-19,24,1855.51,25.8,0
2018-01-20,1,1789.2,25.5,0
2018-01-20,2,1753.8,25.5,0
2018-01-20,3,1608.6,25.2,0
2018-01-20,4,1657.8,25.1,0
2018-01-20,5,1665.4,25.2,0
2018-01-20,6,1669.9,25.1,0
2018-01-20,7,1631.9,25.1,0
2018-01-20,8,1503.9,25.5,0
2018-01-20,9,1504.7,26.3,0
2018-01-20,10,1497.4,27.7,0
2018-01-20,11,1514.4,29.3,0
2018-01-20,12,1519.5,30.8,0
2018-01-20,13,1445.4,30.2,0
2018-01-20,14,1480.5,30.2,0
2018-01-20,15,1493.1,30.0,0
2018-01-20,16,1527.7,29.5,0
2018-01-20,17,1597.7,29.5,0
2018-01-20,18,1646.9,28.6,0
2018-01-20,19,1621.9,27.4,0
2018-01-20,20,1876.71,26.9,0
2018-01-20,21,1947.1,26.6,0
2018-01-20,22,2000.4,26.4,0
2018-01-20,23,1985.6,26.1,0
2018-01-20,24,1861.9,26.0,0
2018-01-21,1,1764.6,25.6,0
2018-01-21,2,1685.51,25.5,0
2018-01-21,3,1643.43,25.5,0
2018-01-21,4,1612.02,25.5,0
2018-01-21,5,1602.95,25.4,0
2018-01-21,6,1615.63,25.1,0
2018-01-21,7,1617.54,24.6,0
2018-01-21,8,1409.42,24.7,0
2018-01-21,9,1447.64,25.9,0
2018-01-21,10,1409.08,27.5,0
2018-01-21,11,1350.68,29.3,0
2018-01-21,12,1357.39,30.8,0
2018-01-21,13,1409.09,31.8,0
2018-01-21,14,1408.52,31.7,0
2018-01-21,15,1467.42,30.9,0
2018-01-21,16,1481.5,30.0,0
2018-01-21,17,1493.31,29.5,0
2018-01-21,18,1528.12,28.7,0
2018-01-21,19,1559.76,27.4,0
2018-01-21,20,1831.32,26.8,0
2018-01-21,21,1943.34,26.6,0
2018-01-21,22,1913.86,26.4,0
2018-01-21,23,1882.91,26.1,0
2018-01-21,24,1647.03,25.9,0
2018-01-22,1,1667.77,25.3,0
2018-01-22,2,1617.35,25.3,0
2018-01-22,3,1584.69,25.1,0
2018-01-22,4,1539.42,25.1,0
2018-01-22,5,1537.63,24.9,0
2018-01-22,6,1596.64,24.9,0
2018-01-22,7,1683.05,24.6,0
2018-01-22,8,1553.96,24.9,0
2018-01-22,9,1449.5,25.5,0
2018-01-22,10,1464.27,27.0,0
2018-01-22,11,1512.2,28.6,0
2018-01-22,12,1562.46,30.2,0
2018-01-22,13,1566.54,30.5,0
2018-01-22,14,1579.27,29.8,0
2018-01-22,15,1594.69,29.5,0
2018-01-22,16,1623.06,29.2,0
2018-01-22,17,1639.26,29.0,0
2018-01-22,18,1658.91,28.1,0
2018-01-22,19,1776.75,27.0,0
2018-01-22,20,1930.03,26.6,0
2018-01-22,21,2003.16,26.4,0
2018-01-22,22,2022.38,26.2,0
2018-01-22,23,1864.77,26.1,0
2018-01-22,24,1831.89,25.9,0
2018-01-23,1,1765.73,25.6,0
2018-01-23,2,1695.04,25.6,0
2018-01-23,3,1666.5,25.5,0
2018-01-23,4,1613.22,25.5,0
2018-01-23,5,1598.91,25.4,0
2018-01-23,6,1650.21,25.0,0
2018-01-23,7,1660.32,25.1,0
2018-01-23,8,1579.08,25.1,0
2018-01-23,9,1515.85,26.0,0
2018-01-23,10,1524.5,27.4,0
2018-01-23,11,1578.72,28.5,0
2018-01-23,12,1554.53,29.4,0
2018-01-23,13,1577.57,30.0,0
2018-01-23,14,1590.68,29.9,0
2018-01-23,15,1584.72,29.3,0
2018-01-23,16,1623.28,29.5,0
2018-01-23,17,1621.51,29.0,0
2018-01-23,18,1671.73,28.4,0
2018-01-23,19,1666.54,27.2,0
2018-01-23,20,1912.13,26.5,0
2018-01-23,21,2041.69,26.3,0
2018-01-23,22,2061.17,26.0,0
2018-01-23,23,1991.53,25.9,0
2018-01-23,24,1803.28,25.6,0
2018-01-24,1,1803.47,25.1,0
2018-01-24,2,1702.38,25.0,0
2018-01-24,3,1662.79,24.8,0
2018-01-24,4,1644.24,24.8,0
2018-01-24,5,1649.06,24.6,0
2018-01-24,6,1680.71,24.7,0
2018-01-24,7,1764.99,24.5,0
2018-01-24,8,1567.0,24.5,0
2018-01-24,9,1550.81,25.4,0
2018-01-24,10,1581.85,26.8,0
2018-01-24,11,1530.56,28.7,0
2018-01-24,12,1554.52,30.0,0
2018-01-24,13,1611.05,29.7,0
2018-01-24,14,1579.01,29.4,0
2018-01-24,15,1574.79,29.4,0
2018-01-24,16,1432.07,29.6,0
2018-01-24,17,1616.07,29.1,0
2018-01-24,18,1615.68,28.2,0
2018-01-24,19,1660.91,27.1,0
2018-01-24,20,1930.63,26.5,0
2018-01-24,21,2031.43,26.1,0
2018-01-24,22,2018.98,26.0,0
2018-01-24,23,1957.68,25.7,0
2018-01-24,24,1803.97,25.6,0
2018-01-25,1,1746.5,25.4,0
2018-01-25,2,1666.61,25.3,0
2018-01-25,3,1664.43,25.0,0
2018-01-25,4,1647.37,24.8,0
2018-01-25,5,1639.46,24.5,0
2018-01-25,6,1663.09,24.4,0
2018-01-25,7,1723.41,24.1,0
2018-01-25,8,1595.54,24.5,0
2018-01-25,9,1522.92,25.9,0
2018-01-25,10,1484.64,27.4,0
2018-01-25,11,1528.43,28.8,0
2018-01-25,12,1561.42,29.5,0
2018-01-25,13,1534.2,27.2,0
2018-01-25,14,1521.27,27.0,0
2018-01-25,15,1533.07,27.7,0
2018-01-25,16,1555.55,28.5,0
2018-01-25,17,1580.99,28.1,0
2018-01-25,18,1576.1,27.5,0
2018-01-25,19,1606.31,26.4,0
2018-01-25,20,1903.52,25.9,0
2018-01-25,21,1961.89,25.6,0
2018-01-25,22,1950.74,25.6,0
2018-01-25,23,1809.05,25.5,0
2018-01-25,24,1800.22,25.3,0
2018-01-26,1,1722.93,24.6,0
2018-01-26,2,1676.7,24.5,0
2018-01-26,3,1617.7,23.8,0
2018-01-26,4,1608.2,23.7,0
2018-01-26,5,1610.2,23.5,0
2018-01-26,6,1596.2,23.5,0
2018-01-26,7,1664.2,23.4,0
2018-01-26,8,1584.7,23.5,0
2018-01-26,9,1466.5,24.9,0
2018-01-26,10,1474.2,26.9,0
2018-01-26,11,1525.8,28.4,0
2018-01-26,12,1531.5,29.5,0
2018-01-26,13,1545.9,29.4,0
2018-01-26,14,1541.4,29.7,0
2018-01-26,15,1570.1,29.5,0
2018-01-26,16,1616.3,29.2,0
2018-01-26,17,1625.3,28.9,0
2018-01-26,18,1666.0,28.1,0
2018-01-26,19,1649.7,27.0,0
2018-01-26,20,1937.72,26.4,0
2018-01-26,21,1940.75,26.0,0
2018-01-26,22,1993.1,25.7,0
2018-01-26,23,1941.6,25.3,0
2018-01-26,24,1846.6,25.1,0
2018-01-27,1,1745.9,23.5,0
2018-01-27,2,1746.93,23.9,0
2018-01-27,3,1682.76,23.5,0
2018-01-27,4,1635.36,23.5,0
2018-01-27,5,1606.73,23.5,0
2018-01-27,6,1583.07,23.5,0
2018-01-27,7,1561.15,23.7,0
2018-01-27,8,1462.25,24.2,0
2018-01-27,9,1421.7,25.4,0
2018-01-27,10,1369.88,26.9,0
2018-01-27,11,1361.88,28.5,0
2018-01-27,12,1385.38,30.0,0
2018-01-27,13,1408.75,31.1,0
2018-01-27,14,1444.95,31.1,0
2018-01-27,15,1456.33,30.4,0
2018-01-27,16,1491.63,30.1,0
2018-01-27,17,1483.93,29.0,0
2018-01-27,18,1504.13,28.1,0
2018-01-27,19,1562.08,27.0,0
2018-01-27,20,1805.97,26.4,0
2018-01-27,21,1942.92,26.4,0
2018-01-27,22,1988.08,26.1,0
2018-01-27,23,1950.99,25.9,0
2018-01-27,24,1891.27,25.8,0
2018-01-28,1,1791.9,25.1,0
2018-01-28,2,1643.64,25.0,0
2018-01-28,3,1654.71,24.8,0
2018-01-28,4,1567.91,24.4,0
2018-01-28,5,1570.21,24.2,0
2018-01-28,6,1578.18,24.4,0
2018-01-28,7,1600.09,24.4,0
2018-01-28,8,1526.61,24.6,0
2018-01-28,9,1475.08,25.9,0
2018-01-28,10,1423.81,27.8,0
2018-01-28,11,1373.1,29.2,0
2018-01-28,12,1365.6,30.5,0
2018-01-28,13,1372.71,31.6,0
2018-01-28,14,1403.79,31.1,0
2018-01-28,15,1468.39,29.8,0
2018-01-28,16,1517.99,29.5,0
2018-01-28,17,1543.08,29.6,0
2018-01-28,18,1553.18,29.1,0
2018-01-28,19,1539.99,27.9,0
2018-01-28,20,1853.09,27.0,0
2018-01-28,21,1924.61,26.6,0
2018-01-28,22,1942.66,26.4,0
2018-01-28,23,1805.77,26.0,0
2018-01-28,24,1760.67,25.8,0
2018-01-29,1,1706.48,25.5,0
2018-01-29,2,1617.35,25.6,0
2018-01-29,3,1592.04,25.3,0
2018-01-29,4,1550.48,25.0,0
2018-01-29,5,1537.63,24.9,0
2018-01-29,6,1596.64,24.8,0
2018-01-29,7,1683.29,24.6,0
2018-01-29,8,1559.14,24.8,0
2018-01-29,9,1513.11,26.4,0
2018-01-29,10,1543.37,28.1,0
2018-01-29,11,1512.2,29.7,0
2018-01-29,12,1562.46,30.5,0
2018-01-29,13,1566.54,31.0,0
2018-01-29,14,1579.27,30.7,0
2018-01-29,15,1594.69,30.4,0
2018-01-29,16,1623.06,30.2,0
2018-01-29,17,1639.26,29.7,0
2018-01-29,18,1658.91,28.5,0
2018-01-29,19,1776.75,27.5,0
2018-01-29,20,1930.03,27.0,0
2018-01-29,21,2004.85,26.6,0
2018-01-29,22,2039.72,26.5,0
2018-01-29,23,1943.73,26.2,0
2018-01-29,24,1831.89,26.0,0
2018-01-30,1,1778.61,25.6,0
2018-01-30,2,1742.7,25.6,0
2018-01-30,3,1698.4,25.4,0
2018-01-30,4,1687.0,25.1,0
2018-01-30,5,1635.0,24.9,0
2018-01-30,6,1680.2,24.6,0
2018-01-30,7,1755.2,24.4,0
2018-01-30,8,1621.1,24.6,0
2018-01-30,9,1548.8,25.8,0
2018-01-30,10,1603.4,27.7,0
2018-01-30,11,1550.6,29.5,0
2018-01-30,12,1658.3,31.1,0
2018-01-30,13,1643.5,30.9,0
2018-01-30,14,1668.6,31.4,0
2018-01-30,15,1685.7,30.1,0
2018-01-30,16,1701.9,30.1,0
2018-01-30,17,1768.3,29.4,0
2018-01-30,18,1656.2,28.1,0
2018-01-30,19,1759.7,27.1,0
2018-01-30,20,1978.34,26.7,0
2018-01-30,21,2042.01,26.5,0
2018-01-30,22,2067.9,26.3,0
2018-01-30,23,2033.2,26.1,0
2018-01-30,24,1890.1,25.9,0
2018-01-31,1,1826.4,25.7,0
2018-01-31,2,1763.5,25.9,0
2018-01-31,3,1705.1,25.6,0
2018-01-31,4,1700.4,25.5,0
2018-01-31,5,1663.1,25.1,0
2018-01-31,6,1703.2,25.1,0
2018-01-31,7,1927.3,25.1,0
2018-01-31,8,1531.9,25.3,0
2018-01-31,9,1567.6,26.3,0
2018-01-31,10,1617.6,27.7,0
2018-01-31,11,1619.3,28.9,0
2018-01-31,12,1652.4,29.8,0
2018-01-31,13,1656.2,29.8,0
2018-01-31,14,1677.2,30.4,0
2018-01-31,15,1704.3,30.5,0
2018-01-31,16,1519.4,30.0,0
2018-01-31,17,1733.2,29.3,0
2018-01-31,18,1761.3,28.4,0
2018-01-31,19,1864.8,27.4,0
2018-01-31,20,1999.68,27.0,0
2018-01-31,21,2043.28,26.8,0
2018-01-31,22,2095.6,26.6,0
2018-01-31,23,2006.7,26.4,0
2018-01-31,24,2037.5,26.2,0
2018-02-01,1,1928.1,26.0,0
2018-02-01,2,1817.4,25.9,0
2018-02-01,3,1743.8,25.5,0
2018-02-01,4,1739.2,25.4,0
2018-02-01,5,1717.5,25.1,0
2018-02-01,6,1742.4,24.9,0
2018-02-01,7,1795.4,24.8,0
2018-02-01,8,1591.7,25.0,0
2018-02-01,9,1577.4,26.0,0
2018-02-01,10,1599.7,28.0,0
2018-02-01,11,1613.4,29.6,0
2018-02-01,12,1612.1,31.0,0
2018-02-01,13,1698.0,31.2,0
2018-02-01,14,1705.8,31.0,0
2018-02-01,15,1703.3,30.5,0
2018-02-01,16,1728.3,30.4,0
2018-02-01,17,1732.4,29.6,0
2018-02-01,18,1729.2,28.6,0
2018-02-01,19,1747.7,27.6,0
2018-02-01,20,1987.72,27.1,0
2018-02-01,21,2088.25,26.9,0
2018-02-01,22,2140.5,26.8,0
2018-02-01,23,2065.6,26.5,0
2018-02-01,24,1962.0,26.4,0
2018-02-02,1,1887.9,26.2,0
2018-02-02,2,1817.38,26.2,0
2018-02-02,3,1789.04,25.8,0
2018-02-02,4,1745.66,25.5,0
2018-02-02,5,1716.45,25.2,0
2018-02-02,6,1761.69,25.2,0
2018-02-02,7,1793.89,25.0,0
2018-02-02,8,1635.33,25.0,0
2018-02-02,9,1570.19,26.2,0
2018-02-02,10,1582.28,27.8,0
2018-02-02,11,1629.33,29.5,0
2018-02-02,12,1636.39,30.9,0
2018-02-02,13,1670.73,31.4,0
2018-02-02,14,1675.9,31.4,0
2018-02-02,15,1678.99,30.8,0
2018-02-02,16,1714.33,30.9,0
2018-02-02,17,1663.72,30.4,0
2018-02-02,18,1695.73,29.1,0
2018-02-02,19,1702.18,28.0,0
2018-02-02,20,2017.41,27.4,0
2018-02-02,21,2004.95,27.0,0
2018-02-02,22,2104.2,26.8,0
2018-02-02,23,2027.73,26.5,0
2018-02-02,24,1927.77,26.2,0
2018-02-03,1,1845.4,26.3,0
2018-02-03,2,1805.64,26.5,0
2018-02-03,3,1752.84,26.2,0
2018-02-03,4,1751.97,26.0,0
2018-02-03,5,1715.75,25.6,0
2018-02-03,6,1707.36,25.4,0
2018-02-03,7,1578.94,25.0,0
2018-02-03,8,1433.22,25.3,0
2018-02-03,9,1501.46,26.6,0
2018-02-03,10,1540.3,28.5,0
2018-02-03,11,1527.09,30.2,0
2018-02-03,12,1541.63,31.5,0
2018-02-03,13,1599.0,31.6,0
2018-02-03,14,1602.87,30.9,0
2018-02-03,15,1632.47,31.5,0
2018-02-03,16,1538.37,30.8,0
2018-02-03,17,1453.29,29.9,0
2018-02-03,18,1436.97,29.0,0
2018-02-03,19,1474.77,28.0,0
2018-02-03,20,1834.66,27.5,0
2018-02-03,21,1789.71,27.1,0
2018-02-03,22,1796.09,27.0,0
2018-02-03,23,1821.74,26.7,0
2018-02-03,24,1695.8,26.5,0
2018-02-04,1,1685.97,26.4,0
2018-02-04,2,1548.69,26.5,0
2018-02-04,3,1515.91,26.2,0
2018-02-04,4,1513.03,26.1,0
2018-02-04,5,1471.79,26.0,0
2018-02-04,6,1393.86,25.6,0
2018-02-04,7,1462.17,25.4,0
2018-02-04,8,1314.6,25.6,0
2018-02-04,9,1304.96,27.0,0
2018-02-04,10,1258.25,28.6,0
2018-02-04,11,1175.47,30.5,0
2018-02-04,12,1186.93,31.5,0
2018-02-04,13,1200.53,31.5,0
2018-02-04,14,1223.49,31.2,0
2018-02-04,15,1256.55,31.1,0
2018-02-04,16,1245.48,31.2,0
2018-02-04,17,1322.38,30.1,0
2018-02-04,18,1375.86,29.3,0
2018-02-04,19,1377.99,28.1,0
2018-02-04,20,1695.0,27.5,0
2018-02-04,21,1773.06,27.3,0
2018-02-04,22,1789.54,27.0,0
2018-02-04,23,1701.51,26.8,0
2018-02-04,24,1605.63,26.6,0
2018-02-05,1,1551.71,26.5,0
2018-02-05,2,1387.0,26.5,0
2018-02-05,3,1446.0,26.5,0
2018-02-05,4,1450.9,26.4,0
2018-02-05,5,1456.0,26.3,0
2018-02-05,6,1471.8,26.2,0
2018-02-05,7,1387.1,26.0,0
2018-02-05,8,1576.4,26.4,0
2018-02-05,9,1480.1,27.2,0
2018-02-05,10,1556.1,28.8,0
2018-02-05,11,1618.7,30.9,0
2018-02-05,12,1670.2,31.9,0
2018-02-05,13,1715.0,31.9,0
2018-02-05,14,1633.9,31.4,0
2018-02-05,15,1698.8,31.3,0
2018-02-05,16,1731.1,31.0,0
2018-02-05,17,1677.2,30.5,0
2018-02-05,18,1616.9,29.5,0
2018-02-05,19,1546.9,28.3,0
2018-02-05,20,1868.94,27.8,0
2018-02-05,21,1882.57,27.6,0
2018-02-05,22,1850.4,27.5,0
2018-02-05,23,1851.5,27.2,0
2018-02-05,24,1820.7,26.9,0
2018-02-06,1,1781.7,26.9,0
2018-02-06,2,1672.01,26.9,0
2018-02-06,3,1618.79,26.7,0
2018-02-06,4,1634.43,26.5,0
2018-02-06,5,1554.75,26.5,0
2018-02-06,6,1577.24,26.4,0
2018-02-06,7,1611.1,26.4,0
2018-02-06,8,1424.97,26.6,0
2018-02-06,9,1391.88,27.4,0
2018-02-06,10,1350.95,28.8,0
2018-02-06,11,1395.47,30.7,0
2018-02-06,12,1394.22,30.9,0
2018-02-06,13,1419.69,31.1,0
2018-02-06,14,1435.62,31.1,0
2018-02-06,15,1455.49,30.6,0
2018-02-06,16,1460.5,30.2,0
2018-02-06,17,1480.16,29.8,0
2018-02-06,18,1523.75,28.8,0
2018-02-06,19,1496.4,28.0,0
2018-02-06,20,1799.22,27.5,0
2018-02-06,21,1873.41,27.3,0
2018-02-06,22,1872.01,27.1,0
2018-02-06,23,1839.61,26.9,0
2018-02-06,24,1728.46,26.7,0
2018-02-07,1,1678.34,26.7,0
2018-02-07,2,1682.1,26.6,0
2018-02-07,3,1583.1,26.4,0
2018-02-07,4,1629.0,26.2,0
2018-02-07,5,1500.4,26.0,0
2018-02-07,6,1564.1,25.9,0
2018-02-07,7,1635.6,25.9,0
2018-02-07,8,1394.9,26.0,0
2018-02-07,9,1413.8,27.1,0
2018-02-07,10,1574.6,28.8,0
2018-02-07,11,1613.3,30.5,0
2018-02-07,12,1604.4,31.3,0
2018-02-07,13,1651.4,32.2,0
2018-02-07,14,1618.9,32.2,0
2018-02-07,15,1629.0,31.4,0
2018-02-07,16,1540.4,30.8,0
2018-02-07,17,1599.0,30.2,0
2018-02-07,18,1541.9,29.5,0
2018-02-07,19,1570.3,28.5,0
2018-02-07,20,1872.93,28.1,0
2018-02-07,21,1913.51,27.9,0
2018-02-07,22,1982.7,27.6,0
2018-02-07,23,1904.9,27.5,0
2018-02-07,24,1840.4,27.2,0
2018-02-08,1,1752.1,27.1,0
2018-02-08,2,1673.7,27.0,0
2018-02-08,3,1566.6,26.7,0
2018-02-08,4,1601.7,26.5,0
2018-02-08,5,1583.7,26.4,0
2018-02-08,6,1585.7,26.2,0
2018-02-08,7,1665.3,26.0,0
2018-02-08,8,1454.4,26.0,0
2018-02-08,9,1430.7,27.6,0
2018-02-08,10,1520.6,29.1,0
2018-02-08,11,1553.8,30.8,0
2018-02-08,12,1596.6,31.4,0
2018-02-08,13,1636.9,31.1,0
2018-02-08,14,1624.0,31.8,0
2018-02-08,15,1656.6,30.8,0
2018-02-08,16,1646.0,30.9,0
2018-02-08,17,1613.5,30.0,0
2018-02-08,18,1670.7,29.0,0
2018-02-08,19,1712.2,28.2,0
2018-02-08,20,1955.1,27.8,0
2018-02-08,21,1960.32,27.5,0
2018-02-08,22,2059.4,27.4,0
2018-02-08,23,2028.2,27.2,0
2018-02-08,24,2010.7,27.0,0
2018-02-09,1,1896.5,27.2,0
2018-02-09,2,1710.86,27.1,0
2018-02-09,3,1628.41,27.0,0
2018-02-09,4,1617.57,26.8,0
2018-02-09,5,1620.08,26.8,0
2018-02-09,6,1623.91,26.6,0
2018-02-09,7,1669.55,26.5,0
2018-02-09,8,1484.19,26.8,0
2018-02-09,9,1467.77,27.6,0
2018-02-09,10,1642.53,29.1,0
2018-02-09,11,1585.64,31.0,0
2018-02-09,12,1593.04,31.5,0
2018-02-09,13,1571.22,31.5,0
2018-02-09,14,1476.25,30.5,0
2018-02-09,15,1540.91,29.5,0
2018-02-09,16,1525.41,30.4,0
2018-02-09,17,1477.91,29.5,0
2018-02-09,18,1530.83,28.5,0
2018-02-09,19,1431.32,27.7,0
2018-02-09,20,2006.66,27.4,0
2018-02-09,21,2082.4,27.3,0
2018-02-09,22,2080.45,27.2,0
2018-02-09,23,2054.73,27.2,0
2018-02-09,24,1992.69,27.0,0
2018-02-10,1,1954.06,26.7,0
2018-02-10,2,1819.8,26.4,0
2018-02-10,3,1764.1,26.1,0
2018-02-10,4,1763.7,25.9,0
2018-02-10,5,1755.0,25.8,0
2018-02-10,6,1746.4,25.6,0
2018-02-10,7,1737.3,25.6,0
2018-02-10,8,1568.6,25.8,0
2018-02-10,9,1545.2,26.9,0
2018-02-10,10,1513.9,28.5,0
2018-02-10,11,1474.9,30.2,0
2018-02-10,12,1481.9,31.5,0
2018-02-10,13,1474.9,31.9,0
2018-02-10,14,1428.5,32.0,0
2018-02-10,15,1427.1,30.6,0
2018-02-10,16,1420.5,30.4,0
2018-02-10,17,1470.6,30.2,0
2018-02-10,18,1439.7,29.4,0
2018-02-10,19,1433.8,28.3,0
2018-02-10,20,1871.88,27.9,0
2018-02-10,21,1869.09,27.6,0
2018-02-10,22,1863.5,27.5,0
2018-02-10,23,1875.7,27.2,0
2018-02-10,24,1931.5,27.0,0
2018-02-11,1,1798.0,27.2,0
2018-02-11,2,1681.8,27.0,0
2018-02-11,3,1660.8,26.8,0
2018-02-11,4,1600.1,26.5,0
2018-02-11,5,1615.3,26.2,0
2018-02-11,6,1569.8,25.8,0
2018-02-11,7,1669.2,25.9,0
2018-02-11,8,1370.1,26.0,0
2018-02-11,9,1303.9,27.0,0
2018-02-11,10,1216.0,27.8,0
2018-02-11,11,1212.3,28.9,0
2018-02-11,12,1209.2,29.9,0
2018-02-11,13,1271.5,31.8,0
2018-02-11,14,1286.7,31.5,0
2018-02-11,15,1347.2,30.6,0
2018-02-11,16,1430.4,31.0,0
2018-02-11,17,1459.7,29.2,0
2018-02-11,18,1435.9,28.9,0
2018-02-11,19,1428.5,27.8,0
2018-02-11,20,1733.28,27.6,0
2018-02-11,21,1840.11,27.4,0
2018-02-11,22,1890.9,27.2,0
2018-02-11,23,1885.0,26.9,0
2018-02-11,24,1843.4,26.6,0
2018-02-12,1,1728.8,27.1,0
2018-02-12,2,1603.2,27.0,0
2018-02-12,3,1623.8,26.6,0
2018-02-12,4,1565.7,26.5,0
2018-02-12,5,1473.8,26.2,0
2018-02-12,6,1481.7,25.9,0
2018-02-12,7,1474.8,25.8,0
2018-02-12,8,1387.8,26.0,0
2018-02-12,9,1413.3,27.0,0
2018-02-12,10,1497.6,28.1,0
2018-02-12,11,1474.2,28.8,0
2018-02-12,12,1491.5,30.0,0
2018-02-12,13,1524.1,31.6,0
2018-02-12,14,1647.7,30.6,0
2018-02-12,15,1641.1,30.9,0
2018-02-12,16,1548.8,30.8,0
2018-02-12,17,1601.8,30.0,0
2018-02-12,18,1506.1,29.4,0
2018-02-12,19,1541.5,28.3,0
2018-02-12,20,1920.8,28.0,0
2018-02-12,21,1974.66,27.8,0
2018-02-12,22,2001.2,27.5,0
2018-02-12,23,2002.5,27.1,0
2018-02-12,24,1850.3,27.0,0
2018-02-13,1,1791.6,26.9,0
2018-02-13,2,1676.9,26.9,0
2018-02-13,3,1619.1,26.8,0
2018-02-13,4,1631.5,26.5,0
2018-02-13,5,1652.9,26.0,0
2018-02-13,6,1657.8,25.9,0
2018-02-13,7,1645.5,25.9,0
2018-02-13,8,1458.3,26.1,0
2018-02-13,9,1398.5,27.0,0
2018-02-13,10,1497.07,28.2,0
2018-02-13,11,1517.5,29.0,0
2018-02-13,12,1533.9,29.6,0
2018-02-13,13,1538.3,28.9,0
2018-02-13,14,1587.7,30.0,0
2018-02-13,15,1574.4,30.8,0
2018-02-13,16,1614.7,28.6,0
2018-02-13,17,1671.6,29.5,0
2018-02-13,18,1587.1,28.6,0
2018-02-13,19,1607.5,27.8,0
2018-02-13,20,1956.68,27.4,0
2018-02-13,21,2022.05,27.2,0
2018-02-13,22,2036.9,27.0,0
2018-02-13,23,2064.9,27.0,0
2018-02-13,24,1815.0,26.8,0
2018-02-14,1,1739.9,26.8,0
2018-02-14,2,1565.2,26.7,0
2018-02-14,3,1555.7,26.4,0
2018-02-14,4,1650.3,26.2,0
2018-02-14,5,1571.7,25.8,0
2018-02-14,6,1699.1,25.6,0
2018-02-14,7,1723.5,25.5,0
2018-02-14,8,1500.5,25.9,0
2018-02-14,9,1447.6,26.9,0
2018-02-14,10,1462.1,28.6,0
2018-02-14,11,1478.8,30.6,0
2018-02-14,12,1530.7,31.6,0
2018-02-14,13,1542.3,32.3,0
2018-02-14,14,1523.8,31.2,0
2018-02-14,15,1617.1,30.5,0
2018-02-14,16,1483.0,30.6,0
2018-02-14,17,1583.4,29.5,0
2018-02-14,18,1646.0,29.0,0
2018-02-14,19,1569.2,28.0,0
2018-02-14,20,1956.33,27.4,0
2018-02-14,21,1970.07,27.4,0
2018-02-14,22,2000.3,27.3,0
2018-02-14,23,1938.8,27.2,0
2018-02-14,24,1872.6,27.2,0
2018-02-15,1,1711.3,27.0,0
2018-02-15,2,1706.2,27.0,0
2018-02-15,3,1621.5,26.8,0
2018-02-15,4,1608.1,26.6,0
2018-02-15,5,1560.2,26.4,0
2018-02-15,6,1587.3,26.1,0
2018-02-15,7,1624.5,25.9,0
2018-02-15,8,1451.7,26.3,0
2018-02-15,9,1441.5,27.4,0
2018-02-15,10,1596.3,28.9,0
2018-02-15,11,1563.3,30.3,0
2018-02-15,12,1569.9,31.7,0
2018-02-15,13,1522.8,31.5,0
2018-02-15,14,1466.3,30.8,0
2018-02-15,15,1476.3,30.4,0
2018-02-15,16,1529.8,30.5,0
2018-02-15,17,1556.0,30.1,0
2018-02-15,18,1737.3,29.1,0
2018-02-15,19,1774.6,28.2,0
2018-02-15,20,2012.28,27.8,0
2018-02-15,21,2136.53,27.5,0
2018-02-15,22,2030.1,27.3,0
2018-02-15,23,1968.7,27.1,0
2018-02-15,24,1832.9,26.9,0
2018-02-16,1,1699.2,26.7,0
2018-02-16,2,1618.0,26.7,0
2018-02-16,3,1633.7,26.5,0
2018-02-16,4,1576.9,26.1,0
2018-02-16,5,1587.8,25.9,0
2018-02-16,6,1609.3,25.6,0
2018-02-16,7,1630.5,25.4,0
2018-02-16,8,1428.7,25.8,0
2018-02-16,9,1470.6,27.3,0
2018-02-16,10,1543.5,28.8,0
2018-02-16,11,1495.5,30.3,0
2018-02-16,12,1563.2,31.4,0
2018-02-16,13,1573.9,31.7,0
2018-02-16,14,1511.7,32.3,0
2018-02-16,15,1561.4,31.3,0
2018-02-16,16,1543.1,30.5,0
2018-02-16,17,1557.7,30.0,0
2018-02-16,18,1571.3,29.3,0
2018-02-16,19,1669.3,28.2,0
2018-02-16,20,1884.99,27.8,0
2018-02-16,21,1948.51,27.5,0
2018-02-16,22,1938.5,27.5,0
2018-02-16,23,1939.8,27.2,0
2018-02-16,24,1811.2,27.0,0
2018-02-17,1,1719.7,27.1,0
2018-02-17,2,1665.4,27.0,0
2018-02-17,3,1621.2,26.9,0
2018-02-17,4,1582.1,26.5,0
2018-02-17,5,1582.6,26.5,0
2018-02-17,6,1592.1,26.5,0
2018-02-17,7,1658.4,26.3,0
2018-02-17,8,1426.8,26.7,0
2018-02-17,9,1449.5,27.7,0
2018-02-17,10,1360.4,29.2,0
2018-02-17,11,1442.7,30.9,0
2018-02-17,12,1443.2,31.3,0
2018-02-17,13,1488.5,32.0,0
2018-02-17,14,1487.7,32.4,0
2018-02-17,15,1483.3,30.4,0
2018-02-17,16,1464.8,31.0,0
2018-02-17,17,1496.4,30.1,0
2018-02-17,18,1509.9,29.1,0
2018-02-17,19,1504.9,28.3,0
2018-02-17,20,1896.61,27.9,0
2018-02-17,21,1933.06,27.7,0
2018-02-17,22,1964.4,27.5,0
2018-02-17,23,1939.7,27.1,0
2018-02-17,24,1881.9,26.9,0
2018-02-18,1,1747.3,27.0,0
2018-02-18,2,1681.8,26.6,0
2018-02-18,3,1660.8,26.5,0
2018-02-18,4,1600.1,26.1,0
2018-02-18,5,1615.3,26.0,0
2018-02-18,6,1569.8,25.9,0
2018-02-18,7,1669.2,25.0,0
2018-02-18,8,1370.1,25.2,0
2018-02-18,9,1303.9,26.5,0
2018-02-18,10,1216.0,27.7,0
2018-02-18,11,1212.3,28.3,0
2018-02-18,12,1209.2,28.8,0
2018-02-18,13,1271.5,29.0,0
2018-02-18,14,1286.7,28.6,0
2018-02-18,15,1347.2,28.6,0
2018-02-18,16,1430.4,27.5,0
2018-02-18,17,1459.7,28.3,0
2018-02-18,18,1435.9,28.0,0
2018-02-18,19,1428.5,27.5,0
2018-02-18,20,1733.28,26.9,0
2018-02-18,21,1840.11,26.8,0
2018-02-18,22,1890.9,26.5,0
2018-02-18,23,1885.0,26.4,0
2018-02-18,24,1843.4,25.8,0
2018-02-19,1,1728.8,26.5,0
2018-02-19,2,1475.51,26.2,0
2018-02-19,3,1421.11,26.1,0
2018-02-19,4,1419.11,26.0,0
2018-02-19,5,1455.66,25.5,0
2018-02-19,6,1490.96,25.5,0
2018-02-19,7,1530.52,25.3,0
2018-02-19,8,1392.68,25.8,0
2018-02-19,9,1339.03,27.0,0
2018-02-19,10,1509.94,28.8,0
2018-02-19,11,1445.44,30.2,0
2018-02-19,12,1439.8,30.5,0
2018-02-19,13,1497.06,31.1,0
2018-02-19,14,1577.6,31.0,0
2018-02-19,15,1454.87,31.0,0
2018-02-19,16,1494.9,30.1,0
2018-02-19,17,1482.37,29.6,0
2018-02-19,18,1516.03,29.1,0
2018-02-19,19,1552.48,28.2,0
2018-02-19,20,1889.22,27.7,0
2018-02-19,21,1983.41,27.5,0
2018-02-19,22,2017.19,27.2,0
2018-02-19,23,1930.71,27.1,0
2018-02-19,24,1895.3,26.8,0
2018-02-20,1,1759.84,26.6,0
2018-02-20,2,1676.9,26.6,0
2018-02-20,3,1619.1,26.4,0
2018-02-20,4,1631.5,26.4,0
2018-02-20,5,1652.9,26.1,0
2018-02-20,6,1657.8,26.0,0
2018-02-20,7,1645.5,25.8,0
2018-02-20,8,1458.3,25.9,0
2018-02-20,9,1398.5,27.4,0
2018-02-20,10,1497.07,29.5,0
2018-02-20,11,1517.5,31.1,0
2018-02-20,12,1533.9,31.8,0
2018-02-20,13,1538.3,29.6,0
2018-02-20,14,1587.7,29.6,0
2018-02-20,15,1574.4,29.9,0
2018-02-20,16,1614.7,29.9,0
2018-02-20,17,1671.6,29.5,0
2018-02-20,18,1587.1,28.8,0
2018-02-20,19,1607.5,28.5,0
2018-02-20,20,1956.68,27.9,0
2018-02-20,21,2022.05,27.5,0
2018-02-20,22,2036.9,27.0,0
2018-02-20,23,2064.9,26.6,0
2018-02-20,24,1815.0,26.4,0
2018-02-21,1,1739.9,25.3,0
2018-02-21,2,1511.6,24.9,0
2018-02-21,3,1557.0,24.7,0
2018-02-21,4,1468.7,24.7,0
2018-02-21,5,1439.9,24.8,0
2018-02-21,6,1474.0,24.8,0
2018-02-21,7,1556.1,24.9,0
2018-02-21,8,1406.0,25.2,0
2018-02-21,9,1374.4,26.5,0
2018-02-21,10,1435.3,28.4,0
2018-02-21,11,1461.2,29.8,0
2018-02-21,12,1362.0,30.8,0
2018-02-21,13,1335.4,31.4,0
2018-02-21,14,1415.1,31.9,0
2018-02-21,15,1442.2,30.9,0
2018-02-21,16,1432.6,31.0,0
2018-02-21,17,1442.8,29.9,0
2018-02-21,18,1493.0,29.0,0
2018-02-21,19,1445.0,28.1,0
2018-02-21,20,1806.74,27.6,0
2018-02-21,21,1822.66,27.4,0
2018-02-21,22,1883.4,27.2,0
2018-02-21,23,1908.9,27.0,0
2018-02-21,24,1788.9,26.8,0
2018-02-22,1,1679.7,26.0,0
2018-02-22,2,1635.7,25.8,0
2018-02-22,3,1517.8,25.4,0
2018-02-22,4,1454.3,25.0,0
2018-02-22,5,1491.97,25.0,0
2018-02-22,6,1540.37,24.8,0
2018-02-22,7,1552.87,24.5,0
2018-02-22,8,1360.01,24.9,0
2018-02-22,9,1361.16,26.4,0
2018-02-22,10,1315.33,28.4,0
2018-02-22,11,1381.07,30.0,0
2018-02-22,12,1402.02,30.9,0
2018-02-22,13,1396.92,31.4,0
2018-02-22,14,1402.76,31.6,0
2018-02-22,15,1407.68,31.2,0
2018-02-22,16,1436.44,30.9,0
2018-02-22,17,1424.88,30.3,0
2018-02-22,18,1433.41,29.2,0
2018-02-22,19,1520.71,28.1,0
2018-02-22,20,1783.74,27.7,0
2018-02-22,21,1903.48,27.5,0
2018-02-22,22,1905.11,27.4,0
2018-02-22,23,1895.36,27.2,0
2018-02-22,24,1926.09,27.0,0
2018-02-23,1,1803.67,26.6,0
2018-02-23,2,1712.5,26.4,0
2018-02-23,3,1665.9,26.0,0
2018-02-23,4,1583.3,25.6,0
2018-02-23,5,1403.4,25.2,0
2018-02-23,6,1496.7,25.0,0
2018-02-23,7,1514.0,24.8,0
2018-02-23,8,1439.4,25.1,0
2018-02-23,9,1426.4,26.6,0
2018-02-23,10,1491.2,28.7,0
2018-02-23,11,1460.8,30.5,0
2018-02-23,12,1536.8,31.9,0
2018-02-23,13,1476.4,31.9,0
2018-02-23,14,1443.8,29.8,0
2018-02-23,15,1498.0,31.2,0
2018-02-23,16,1590.6,31.3,0
2018-02-23,17,1526.9,30.3,0
2018-02-23,18,1516.7,29.5,0
2018-02-23,19,1524.3,28.5,0
2018-02-23,20,1827.45,28.0,0
2018-02-23,21,1884.92,27.9,0
2018-02-23,22,1852.6,27.5,0
2018-02-23,23,1870.0,27.5,0
2018-02-23,24,1919.4,27.1,0
2018-02-24,1,1754.6,26.6,0
2018-02-24,2,1728.0,26.5,0
2018-02-24,3,1642.7,26.0,0
2018-02-24,4,1563.2,25.8,0
2018-02-24,5,1547.1,25.7,0
2018-02-24,6,1542.9,25.5,0
2018-02-24,7,1460.3,25.2,0
2018-02-24,8,1364.1,24.7,0
2018-02-24,9,1308.1,25.5,0
2018-02-24,10,1315.1,26.8,0
2018-02-24,11,1340.8,28.3,0
2018-02-24,12,1395.0,29.2,0
2018-02-24,13,1372.3,30.0,0
2018-02-24,14,1451.1,28.5,0
2018-02-24,15,1483.7,28.4,0
2018-02-24,16,1468.4,28.3,0
2018-02-24,17,1477.0,27.5,0
2018-02-24,18,1492.7,27.3,0
2018-02-24,19,1444.3,27.0,0
2018-02-24,20,1838.01,26.5,0
2018-02-24,21,1887.27,26.5,0
2018-02-24,22,1915.4,26.1,0
2018-02-24,23,1863.8,25.8,0
2018-02-24,24,1833.0,25.4,0
2018-02-25,1,1762.5,26.1,0
2018-02-25,2,1659.19,25.9,0
2018-02-25,3,1539.39,25.8,0
2018-02-25,4,1609.22,25.5,0
2018-02-25,5,1449.24,25.2,0
2018-02-25,6,1482.74,25.0,0
2018-02-25,7,1479.04,25.0,0
2018-02-25,8,1321.45,25.2,0
2018-02-25,9,1369.28,26.0,0
2018-02-25,10,1312.24,27.4,0
2018-02-25,11,1374.36,29.6,0
2018-02-25,12,1329.42,31.0,0
2018-02-25,13,1404.07,32.0,0
2018-02-25,14,1454.86,32.0,0
2018-02-25,15,1472.07,31.5,0
2018-02-25,16,1503.57,30.9,0
2018-02-25,17,1481.07,30.8,0
2018-02-25,18,1471.88,29.2,0
2018-02-25,19,1462.59,28.5,0
2018-02-25,20,1762.11,28.1,0
2018-02-25,21,1725.14,27.9,0
2018-02-25,22,1814.83,27.6,0
2018-02-25,23,1696.57,27.5,0
2018-02-25,24,1707.05,26.7,0
2018-02-26,1,1642.61,26.0,0
2018-02-26,2,1498.9,25.7,0
2018-02-26,3,1499.3,25.5,0
2018-02-26,4,1441.7,25.5,0
2018-02-26,5,1441.2,25.2,0
2018-02-26,6,1491.9,25.1,0
2018-02-26,7,1532.9,25.0,0
2018-02-26,8,1346.8,25.1,0
2018-02-26,9,1348.0,25.7,0
2018-02-26,10,1376.1,26.8,0
2018-02-26,11,1342.9,28.5,0
2018-02-26,12,1401.8,29.8,0
2018-02-26,13,1425.2,27.3,0
2018-02-26,14,1469.0,28.4,0
2018-02-26,15,1499.6,29.2,0
2018-02-26,16,1556.1,29.6,0
2018-02-26,17,1357.3,28.5,0
2018-02-26,18,1327.4,27.1,0
2018-02-26,19,1534.0,25.9,0
2018-02-26,20,1890.89,24.9,0
2018-02-26,21,1879.35,25.0,0
2018-02-26,22,1947.9,24.8,0
2018-02-26,23,1814.2,24.6,0
2018-02-26,24,1760.2,24.6,0
2018-02-27,1,1677.1,26.1,0
2018-02-27,2,1616.6,25.9,0
2018-02-27,3,1567.3,25.5,0
2018-02-27,4,1487.2,25.1,0
2018-02-27,5,1492.2,25.0,0
2018-02-27,6,1530.7,24.8,0
2018-02-27,7,1589.9,24.8,0
2018-02-27,8,1470.3,25.0,0
2018-02-27,9,1500.3,25.5,0
2018-02-27,10,1472.7,26.4,0
2018-02-27,11,1472.5,28.1,0
2018-02-27,12,1501.3,29.5,0
2018-02-27,13,1517.2,30.5,0
2018-02-27,14,1534.7,30.0,0
2018-02-27,15,1535.8,29.3,0
2018-02-27,16,1481.4,29.5,0
2018-02-27,17,1518.4,29.0,0
2018-02-27,18,1555.5,28.2,0
2018-02-27,19,1564.8,27.5,0
2018-02-27,20,1819.35,27.0,0
2018-02-27,21,1832.45,26.9,0
2018-02-27,22,1889.7,26.8,0
2018-02-27,23,1895.7,26.7,0
2018-02-27,24,1771.5,26.5,0
2018-02-28,1,1795.9,26.4,0
2018-02-28,2,1691.02,26.1,0
2018-02-28,3,1621.16,26.0,0
2018-02-28,4,1543.09,25.9,0
2018-02-28,5,1507.15,25.5,0
2018-02-28,6,1555.31,25.0,0
2018-02-28,7,1468.47,24.5,0
2018-02-28,8,1425.89,24.8,0
2018-02-28,9,1453.28,26.2,0
2018-02-28,10,1427.42,28.0,0
2018-02-28,11,1422.82,29.5,0
2018-02-28,12,1473.79,30.2,0
2018-02-28,13,1483.19,31.0,0
2018-02-28,14,1500.13,30.1,0
2018-02-28,15,1582.03,30.4,0
2018-02-28,16,1650.76,30.6,0
2018-02-28,17,1651.86,30.1,0
2018-02-28,18,1529.03,29.0,0
2018-02-28,19,1607.62,28.0,0
2018-02-28,20,1833.49,27.4,0
2018-02-28,21,2023.49,27.1,0
2018-02-28,22,1971.36,27.0,0
2018-02-28,23,1999.16,26.8,0
2018-02-28,24,1865.48,26.6,0
2018-03-01,1,1792.97,26.2,0
2018-03-01,2,1746.86,26.1,0
2018-03-01,3,1726.29,26.0,0
2018-03-01,4,1704.72,25.9,0
2018-03-01,5,1657.42,25.8,0
2018-03-01,6,1723.52,25.5,0
2018-03-01,7,1708.4,25.1,0
2018-03-01,8,1595.53,25.4,0
2018-03-01,9,1550.43,26.6,0
2018-03-01,10,1565.91,28.2,0
2018-03-01,11,1581.84,29.9,0
2018-03-01,12,1555.86,30.6,0
2018-03-01,13,1637.66,31.4,0
2018-03-01,14,1652.82,31.1,0
2018-03-01,15,1640.12,31.5,0
2018-03-01,16,1629.58,30.2,0
2018-03-01,17,1686.76,29.1,0
2018-03-01,18,1680.15,28.6,0
2018-03-01,19,1708.0,27.7,0
2018-03-01,20,1868.11,27.2,0
2018-03-01,21,1898.73,27.2,0
2018-03-01,22,1944.04,27.0,0
2018-03-01,23,1841.33,26.9,0
2018-03-01,24,1780.92,26.5,0
2018-03-02,1,1755.78,26.2,0
2018-03-02,2,1735.14,26.0,0
2018-03-02,3,1629.09,25.8,0
2018-03-02,4,1565.26,25.5,0
2018-03-02,5,1591.98,25.2,0
2018-03-02,6,1614.76,25.0,0
2018-03-02,7,1712.67,24.7,0
2018-03-02,8,1524.45,25.2,0
2018-03-02,9,1497.13,26.5,0
2018-03-02,10,1537.78,28.0,0
2018-03-02,11,1582.82,29.6,0
2018-03-02,12,1578.87,30.2,0
2018-03-02,13,1562.23,30.9,0
2018-03-02,14,1587.95,30.3,0
2018-03-02,15,1605.15,30.0,0
2018-03-02,16,1658.41,30.0,0
2018-03-02,17,1668.93,29.5,0
2018-03-02,18,1696.48,28.6,0
2018-03-02,19,1604.21,27.9,0
2018-03-02,20,1944.8,27.5,0
2018-03-02,21,1978.2,27.4,0
2018-03-02,22,2107.44,27.1,0
2018-03-02,23,2065.75,26.9,0
2018-03-02,24,1976.87,26.7,0
2018-03-03,1,1912.89,26.3,0
2018-03-03,2,1810.76,26.2,0
2018-03-03,3,1768.02,26.0,0
2018-03-03,4,1722.35,25.8,0
2018-03-03,5,1635.88,25.2,0
2018-03-03,6,1721.1,24.9,0
2018-03-03,7,1661.12,24.6,0
2018-03-03,8,1557.45,24.9,0
2018-03-03,9,1488.42,26.3,0
2018-03-03,10,1418.24,28.0,0
2018-03-03,11,1421.29,29.7,0
2018-03-03,12,1470.16,30.9,0
2018-03-03,13,1482.84,30.9,0
2018-03-03,14,1480.21,30.8,0
2018-03-03,15,1506.11,30.8,0
2018-03-03,16,1492.91,29.9,0
2018-03-03,17,1544.91,29.6,0
2018-03-03,18,1527.91,28.8,0
2018-03-03,19,1628.87,27.9,0
2018-03-03,20,1906.21,27.5,0
2018-03-03,21,2003.41,27.2,0
2018-03-03,22,2040.68,27.1,0
2018-03-03,23,2051.38,27.0,0
2018-03-03,24,1969.49,26.9,0
2018-03-04,1,1831.38,27.0,0
2018-03-04,2,1808.6,27.0,0
2018-03-04,3,1681.5,26.8,0
2018-03-04,4,1727.4,26.4,0
2018-03-04,5,1727.4,26.0,0
2018-03-04,6,1736.5,25.9,0
2018-03-04,7,1672.8,25.6,0
2018-03-04,8,1623.8,26.1,0
2018-03-04,9,1560.6,27.3,0
2018-03-04,10,1487.6,29.0,0
2018-03-04,11,1454.2,30.6,0
2018-03-04,12,1488.9,31.5,0
2018-03-04,13,1485.4,31.8,0
2018-03-04,14,1515.1,29.8,0
2018-03-04,15,1574.5,30.6,0
2018-03-04,16,1561.1,29.3,0
2018-03-04,17,1506.1,29.2,0
2018-03-04,18,1511.4,28.5,0
2018-03-04,19,1431.0,27.6,0
2018-03-04,20,1669.3,27.2,0
2018-03-04,21,1932.8,27.0,0
2018-03-04,22,1876.6,26.9,0
2018-03-04,23,1808.4,26.7,0
2018-03-04,24,1675.3,26.4,0
2018-03-05,1,1594.4,26.4,0
2018-03-05,2,1571.15,26.2,0
2018-03-05,3,1512.97,26.0,0
2018-03-05,4,1376.35,25.8,0
2018-03-05,5,1469.35,25.6,0
2018-03-05,6,1466.25,25.6,0
2018-03-05,7,1573.53,25.5,0
2018-03-05,8,1477.15,25.8,0
2018-03-05,9,1516.84,27.2,0
2018-03-05,10,1501.01,28.6,0
2018-03-05,11,1509.86,29.2,0
2018-03-05,12,1522.31,30.0,0
2018-03-05,13,1592.37,31.0,0
2018-03-05,14,1632.98,31.1,0
2018-03-05,15,1589.98,30.5,0
2018-03-05,16,1622.12,30.2,0
2018-03-05,17,1650.43,29.4,0
2018-03-05,18,1680.7,28.8,0
2018-03-05,19,1602.18,28.0,0
2018-03-05,20,1900.59,27.6,0
2018-03-05,21,1954.72,27.4,0
2018-03-05,22,1991.55,27.1,0
2018-03-05,23,1983.74,26.6,0
2018-03-05,24,1857.39,26.3,0
2018-03-06,1,1718.46,25.7,1
2018-03-06,2,1591.5,25.6,1
2018-03-06,3,1628.14,25.4,1
2018-03-06,4,1632.51,25.0,1
2018-03-06,5,1581.41,24.8,1
2018-03-06,6,1569.8,24.6,1
2018-03-06,7,1578.31,24.5,1
2018-03-06,8,1484.38,25.0,1
2018-03-06,9,1492.51,26.5,1
2018-03-06,10,1502.43,28.1,1
2018-03-06,11,1491.74,29.5,1
2018-03-06,12,1543.97,30.1,1
2018-03-06,13,1590.67,30.6,1
2018-03-06,14,1657.25,31.1,1
2018-03-06,15,1654.85,30.6,1
2018-03-06,16,1639.83,30.6,1
2018-03-06,17,1649.02,29.7,1
2018-03-06,18,1661.5,29.0,1
2018-03-06,19,1641.48,28.2,1
2018-03-06,20,1901.64,27.7,1
2018-03-06,21,1956.92,27.5,1
2018-03-06,22,1974.69,27.1,1
2018-03-06,23,1964.19,26.9,1
2018-03-06,24,1857.34,26.5,1
2018-03-07,1,1814.07,26.4,0
2018-03-07,2,1681.8,26.4,0
2018-03-07,3,1721.8,26.0,0
2018-03-07,4,1666.4,25.9,0
2018-03-07,5,1684.2,25.5,0
2018-03-07,6,1644.1,25.2,0
2018-03-07,7,1691.1,25.1,0
2018-03-07,8,1606.3,25.8,0
2018-03-07,9,1637.8,27.3,0
2018-03-07,10,1688.4,29.0,0
2018-03-07,11,1751.0,30.2,0
2018-03-07,12,1720.7,31.0,0
2018-03-07,13,1680.6,31.1,0
2018-03-07,14,1710.1,31.2,0
2018-03-07,15,1754.7,30.9,0
2018-03-07,16,1790.2,30.5,0
2018-03-07,17,1761.5,30.0,0
2018-03-07,18,1759.3,29.2,0
2018-03-07,19,1579.0,28.4,0
2018-03-07,20,1986.58,28.0,0
2018-03-07,21,2073.18,27.6,0
2018-03-07,22,1982.1,27.3,0
2018-03-07,23,1997.2,27.0,0
2018-03-07,24,1885.8,26.5,0
2018-03-08,1,1786.1,26.5,0
2018-03-08,2,1628.8,26.4,0
2018-03-08,3,1629.3,26.2,0
2018-03-08,4,1590.5,25.5,0
2018-03-08,5,1556.1,25.5,0
2018-03-08,6,1611.4,25.4,0
2018-03-08,7,1587.7,25.2,0
2018-03-08,8,1529.6,25.4,0
2018-03-08,9,1506.4,26.6,0
2018-03-08,10,1603.2,28.2,0
2018-03-08,11,1593.3,29.7,0
2018-03-08,12,1640.0,30.6,0
2018-03-08,13,1625.3,31.1,0
2018-03-08,14,1571.3,30.6,0
2018-03-08,15,1663.4,31.3,0
2018-03-08,16,1696.7,30.2,0
2018-03-08,17,1654.2,29.4,0
2018-03-08,18,1694.8,28.6,0
2018-03-08,19,1659.1,27.9,0
2018-03-08,20,1964.38,27.4,0
2018-03-08,21,2028.08,27.2,0
2018-03-08,22,2093.9,27.0,0
2018-03-08,23,2016.7,26.8,0
2018-03-08,24,1747.2,26.4,0
2018-03-09,1,1815.9,26.4,0
2018-03-09,2,1681.31,26.2,0
2018-03-09,3,1623.58,26.0,0
2018-03-09,4,1633.34,25.8,0
2018-03-09,5,1590.14,25.4,0
2018-03-09,6,1554.47,25.3,0
2018-03-09,7,1601.28,25.3,0
2018-03-09,8,1424.83,25.9,0
2018-03-09,9,1580.92,27.4,0
2018-03-09,10,1674.1,29.0,0
2018-03-09,11,1639.73,30.4,0
2018-03-09,12,1671.33,30.9,0
2018-03-09,13,1660.29,30.5,0
2018-03-09,14,1616.01,30.6,0
2018-03-09,15,1671.21,30.6,0
2018-03-09,16,1760.08,30.4,0
2018-03-09,17,1705.88,29.9,0
2018-03-09,18,1783.15,29.1,0
2018-03-09,19,1683.18,28.4,0
2018-03-09,20,1966.07,28.0,0
2018-03-09,21,1933.97,27.9,0
2018-03-09,22,1982.72,27.6,0
2018-03-09,23,1984.52,27.5,0
2018-03-09,24,1891.97,27.1,0
2018-03-10,1,1874.71,27.0,0
2018-03-10,2,1759.1,26.8,0
2018-03-10,3,1755.3,26.5,0
2018-03-10,4,1711.7,26.5,0
2018-03-10,5,1746.3,26.2,0
2018-03-10,6,1655.1,26.0,0
2018-03-10,7,1659.8,25.8,0
2018-03-10,8,1534.2,26.2,0
2018-03-10,9,1583.0,27.5,0
2018-03-10,10,1537.2,29.1,0
2018-03-10,11,1608.2,30.2,0
2018-03-10,12,1539.7,30.8,0
2018-03-10,13,1629.6,30.6,0
2018-03-10,14,1687.6,30.5,0
2018-03-10,15,1711.3,30.7,0
2018-03-10,16,1667.9,30.5,0
2018-03-10,17,1572.1,30.4,0
2018-03-10,18,1622.7,29.6,0
2018-03-10,19,1548.7,28.8,0
2018-03-10,20,1907.59,27.5,0
2018-03-10,21,2000.29,26.9,0
2018-03-10,22,2010.9,26.4,0
2018-03-10,23,2013.1,26.0,0
2018-03-10,24,1763.8,25.5,0
2018-03-11,1,1782.9,26.6,0
2018-03-11,2,1740.2,26.3,0
2018-03-11,3,1666.7,26.0,0
2018-03-11,4,1631.5,25.8,0
2018-03-11,5,1574.6,25.5,0
2018-03-11,6,1615.6,25.2,0
2018-03-11,7,1597.9,25.0,0
2018-03-11,8,1583.5,25.5,0
2018-03-11,9,1440.0,27.0,0
2018-03-11,10,1386.1,29.0,0
2018-03-11,11,1344.7,30.0,0
2018-03-11,12,1410.0,30.2,0
2018-03-11,13,1453.9,30.5,0
2018-03-11,14,1503.8,31.5,0
2018-03-11,15,1526.4,30.9,0
2018-03-11,16,1559.2,30.6,0
2018-03-11,17,1513.1,30.4,0
2018-03-11,18,1536.8,29.0,0
2018-03-11,19,1568.1,28.3,0
2018-03-11,20,1916.58,27.9,0
2018-03-11,21,1971.7,27.6,0
2018-03-11,22,1973.1,27.2,0
2018-03-11,23,1975.5,27.0,0
2018-03-11,24,1835.3,26.8,0
2018-03-12,1,1731.3,26.9,0
2018-03-12,2,1748.2,26.6,0
2018-03-12,3,1651.3,26.4,0
2018-03-12,4,1624.5,26.1,0
2018-03-12,5,1554.0,26.0,0
2018-03-12,6,1612.7,25.7,0
2018-03-12,7,1664.2,25.5,0
2018-03-12,8,1701.7,26.0,0
2018-03-12,9,1544.4,27.4,0
2018-03-12,10,1583.4,28.9,0
2018-03-12,11,1624.5,29.9,0
2018-03-12,12,1678.6,30.2,0
2018-03-12,13,1708.0,30.7,0
2018-03-12,14,1643.8,30.5,0
2018-03-12,15,1634.0,30.5,0
2018-03-12,16,1632.9,30.5,0
2018-03-12,17,1698.1,29.6,0
2018-03-12,18,1760.7,29.0,0
2018-03-12,19,1714.9,28.4,0
2018-03-12,20,1982.96,28.1,0
2018-03-12,21,2069.49,27.9,0
2018-03-12,22,2085.7,27.6,0
2018-03-12,23,1996.2,27.2,0
2018-03-12,24,1926.8,26.8,0
2018-03-13,1,1863.5,26.7,0
2018-03-13,2,1817.9,26.5,0
2018-03-13,3,1725.5,26.1,0
2018-03-13,4,1737.0,25.9,0
2018-03-13,5,1665.8,25.6,0
2018-03-13,6,1733.2,25.5,0
2018-03-13,7,1780.8,25.2,0
2018-03-13,8,1676.2,25.8,0
2018-03-13,9,1617.7,27.0,0
2018-03-13,10,1647.3,29.0,0
2018-03-13,11,1666.2,30.1,0
2018-03-13,12,1684.5,30.5,0
2018-03-13,13,1670.2,31.2,0
2018-03-13,14,1606.9,30.1,0
2018-03-13,15,1688.4,30.7,0
2018-03-13,16,1719.4,30.2,0
2018-03-13,17,1722.5,29.6,0
2018-03-13,18,1714.4,28.9,0
2018-03-13,19,1696.7,28.2,0
2018-03-13,20,1949.37,27.8,0
2018-03-13,21,2024.98,27.5,0
2018-03-13,22,2069.9,27.2,0
2018-03-13,23,2059.1,27.0,0
2018-03-13,24,1889.1,26.5,0
2018-03-14,1,1876.7,26.3,0
2018-03-14,2,1720.31,26.0,0
2018-03-14,3,1766.14,25.7,0
2018-03-14,4,1724.66,25.5,0
2018-03-14,5,1725.99,25.1,0
2018-03-14,6,1758.89,24.8,0
2018-03-14,7,1777.8,24.6,0
2018-03-14,8,1637.04,25.1,0
2018-03-14,9,1602.19,26.7,0
2018-03-14,10,1579.43,28.5,0
2018-03-14,11,1652.25,30.2,0
2018-03-14,12,1703.04,31.1,0
2018-03-14,13,1675.48,31.3,0
2018-03-14,14,1717.61,30.9,0
2018-03-14,15,1736.78,31.1,0
2018-03-14,16,1698.94,30.2,0
2018-03-14,17,1763.04,29.6,0
2018-03-14,18,1766.94,29.0,0
2018-03-14,19,1687.05,28.2,0
2018-03-14,20,1963.37,27.9,0
2018-03-14,21,2070.66,27.7,0
2018-03-14,22,2041.08,27.5,0
2018-03-14,23,1978.04,27.3,0
2018-03-14,24,1958.04,27.0,0
2018-03-15,1,1819.68,26.5,0
2018-03-15,2,1833.4,26.3,0
2018-03-15,3,1840.0,26.0,0
2018-03-15,4,1743.9,25.9,0
2018-03-15,5,1778.1,25.6,0
2018-03-15,6,1759.9,25.3,0
2018-03-15,7,1713.2,25.0,0
2018-03-15,8,1654.3,25.7,0
2018-03-15,9,1541.1,27.4,0
2018-03-15,10,1632.5,29.4,0
2018-03-15,11,1661.5,31.1,0
2018-03-15,12,1626.3,31.9,0
2018-03-15,13,1621.7,31.6,0
2018-03-15,14,1628.5,30.5,0
2018-03-15,15,1687.7,30.5,0
2018-03-15,16,1672.7,30.4,0
2018-03-15,17,1687.1,30.0,0
2018-03-15,18,1726.0,29.0,0
2018-03-15,19,1711.6,28.1,0
2018-03-15,20,2011.49,27.7,0
2018-03-15,21,2026.95,27.6,0
2018-03-15,22,2092.3,27.4,0
2018-03-15,23,2084.9,27.0,0
2018-03-15,24,1967.4,26.8,0
2018-03-16,1,1932.6,27.1,0
2018-03-16,2,1832.8,26.9,0
2018-03-16,3,1798.2,26.5,0
2018-03-16,4,1760.7,26.3,0
2018-03-16,5,1768.4,25.9,0
2018-03-16,6,1731.1,25.6,0
2018-03-16,7,1823.9,25.5,0
2018-03-16,8,1738.4,26.0,0
2018-03-16,9,1688.9,27.0,0
2018-03-16,10,1654.5,28.6,0
2018-03-16,11,1802.2,30.3,0
2018-03-16,12,1814.5,30.6,0
2018-03-16,13,1673.3,31.1,0
2018-03-16,14,1698.5,30.6,0
2018-03-16,15,1664.0,30.0,0
2018-03-16,16,1706.2,30.1,0
2018-03-16,17,1724.8,29.9,0
2018-03-16,18,1678.6,29.0,0
2018-03-16,19,1722.66,28.2,0
2018-03-16,20,1887.45,27.6,0
2018-03-16,21,1946.11,27.4,0
2018-03-16,22,1982.2,27.2,0
2018-03-16,23,1968.5,27.0,0
2018-03-16,24,1888.1,26.6,0
2018-03-17,1,1891.8,26.3,0
2018-03-17,2,1772.4,26.1,0
2018-03-17,3,1714.6,25.8,0
2018-03-17,4,1669.7,25.2,0
2018-03-17,5,1716.0,25.0,0
2018-03-17,6,1673.0,24.9,0
2018-03-17,7,1673.3,24.7,0
2018-03-17,8,1585.4,25.2,0
2018-03-17,9,1529.1,27.0,0
2018-03-17,10,1504.4,29.1,0
2018-03-17,11,1442.4,31.0,0
2018-03-17,12,1503.4,32.5,0
2018-03-17,13,1473.8,30.8,0
2018-03-17,14,1392.2,31.0,0
2018-03-17,15,1536.1,30.8,0
2018-03-17,16,1546.4,30.5,0
2018-03-17,17,1586.5,29.9,0
2018-03-17,18,1598.8,29.0,0
2018-03-17,19,1553.6,28.2,0
2018-03-17,20,1804.76,27.7,0
2018-03-17,21,1971.41,27.5,0
2018-03-17,22,1925.7,27.3,0
2018-03-17,23,1961.8,27.0,0
2018-03-17,24,1800.9,26.7,0
2018-03-18,1,1698.1,26.4,0
2018-03-18,2,1690.3,26.0,0
2018-03-18,3,1527.3,25.8,0
2018-03-18,4,1503.8,25.4,0
2018-03-18,5,1531.9,25.1,0
2018-03-18,6,1598.5,25.0,0
2018-03-18,7,1575.3,24.8,0
2018-03-18,8,1490.2,25.1,0
2018-03-18,9,1441.9,25.5,0
2018-03-18,10,1423.4,26.9,0
2018-03-18,11,1411.3,28.8,0
2018-03-18,12,1442.0,30.0,0
2018-03-18,13,1486.2,30.8,0
2018-03-18,14,1516.3,31.5,0
2018-03-18,15,1526.4,31.1,0
2018-03-18,16,1539.1,29.8,0
2018-03-18,17,1562.4,29.5,0
2018-03-18,18,1608.3,29.0,0
2018-03-18,19,1582.7,28.0,0
2018-03-18,20,1767.47,27.8,0
2018-03-18,21,1988.13,27.5,0
2018-03-18,22,2024.6,27.5,0
2018-03-18,23,1990.9,27.1,0
2018-03-18,24,1755.9,27.0,0
2018-03-19,1,1714.3,26.6,0
2018-03-19,2,1731.9,26.4,0
2018-03-19,3,1666.9,26.0,0
2018-03-19,4,1628.1,25.8,0
2018-03-19,5,1639.4,25.5,0
2018-03-19,6,1710.3,25.3,0
2018-03-19,7,1742.9,25.0,0
2018-03-19,8,1647.1,25.6,0
2018-03-19,9,1528.1,27.2,0
2018-03-19,10,1560.2,29.0,0
2018-03-19,11,1556.2,30.5,0
2018-03-19,12,1675.3,31.2,0
2018-03-19,13,1675.5,31.3,0
2018-03-19,14,1679.6,31.1,0
2018-03-19,15,1716.2,30.9,0
2018-03-19,16,1615.5,30.2,0
2018-03-19,17,1737.6,29.4,0
2018-03-19,18,1824.2,28.7,0
2018-03-19,19,1728.8,28.0,0
2018-03-19,20,1978.3,27.6,0
2018-03-19,21,2062.11,27.5,0
2018-03-19,22,2090.0,27.2,0
2018-03-19,23,2047.5,26.9,0
2018-03-19,24,1936.0,26.5,0
2018-03-20,1,1935.5,26.5,0
2018-03-20,2,1811.5,26.3,0
2018-03-20,3,1807.6,26.0,0
2018-03-20,4,1829.6,25.8,0
2018-03-20,5,1747.8,25.3,0
2018-03-20,6,1777.7,25.0,0
2018-03-20,7,1785.0,25.0,0
2018-03-20,8,1633.6,25.5,0
2018-03-20,9,1656.5,27.2,0
2018-03-20,10,1628.4,29.2,0
2018-03-20,11,1662.3,30.8,0
2018-03-20,12,1682.9,31.1,0
2018-03-20,13,1628.3,31.0,0
2018-03-20,14,1654.4,31.0,0
2018-03-20,15,1743.2,31.0,0
2018-03-20,16,1744.7,30.0,0
2018-03-20,17,1800.3,29.8,0
2018-03-20,18,1783.7,29.3,0
2018-03-20,19,1935.7,28.5,0
2018-03-20,20,1983.68,28.0,0
2018-03-20,21,1973.08,27.6,0
2018-03-20,22,2116.5,27.4,0
2018-03-20,23,1884.6,27.1,0
2018-03-20,24,1902.9,26.8,0
2018-03-21,1,1820.2,26.7,0
2018-03-21,2,1778.4,26.8,0
2018-03-21,3,1697.3,26.3,0
2018-03-21,4,1723.4,26.0,0
2018-03-21,5,1658.3,25.6,0
2018-03-21,6,1616.3,25.2,0
2018-03-21,7,1774.5,25.0,0
2018-03-21,8,1564.6,25.6,0
2018-03-21,9,1629.9,27.2,0
2018-03-21,10,1633.7,29.4,0
2018-03-21,11,1630.3,31.5,0
2018-03-21,12,1676.9,32.8,0
2018-03-21,13,1703.5,32.0,0
2018-03-21,14,1707.2,30.4,0
2018-03-21,15,1739.2,31.4,0
2018-03-21,16,1658.9,30.7,0
2018-03-21,17,1853.6,29.8,0
2018-03-21,18,1739.4,29.4,0
2018-03-21,19,1701.4,28.4,0
2018-03-21,20,1940.38,27.7,0
2018-03-21,21,1983.41,27.3,0
2018-03-21,22,2137.4,27.0,0
2018-03-21,23,2043.7,26.8,0
2018-03-21,24,1972.0,26.5,0
2018-03-22,1,1886.5,26.7,0
2018-03-22,2,1817.0,26.5,0
2018-03-22,3,1781.5,26.1,0
2018-03-22,4,1753.1,25.8,0
2018-03-22,5,1669.7,25.7,0
2018-03-22,6,1663.7,25.5,0
2018-03-22,7,1680.2,25.4,0
2018-03-22,8,1584.0,26.0,0
2018-03-22,9,1554.1,27.7,0
2018-03-22,10,1626.0,29.5,0
2018-03-22,11,1593.1,30.8,0
2018-03-22,12,1660.9,31.0,0
2018-03-22,13,1662.0,31.0,0
2018-03-22,14,1676.4,29.0,0
2018-03-22,15,1683.4,30.0,0
2018-03-22,16,1695.0,29.7,0
2018-03-22,17,1649.1,29.0,0
2018-03-22,18,1737.7,28.2,0
2018-03-22,19,1617.4,27.5,0
2018-03-22,20,1898.96,27.0,0
2018-03-22,21,2009.2,27.0,0
2018-03-22,22,2076.4,26.6,0
2018-03-22,23,2035.9,26.5,0
2018-03-22,24,1926.1,26.2,0
2018-03-23,1,1871.9,26.6,0
2018-03-23,2,1876.2,26.4,0
2018-03-23,3,1856.8,26.1,0
2018-03-23,4,1719.2,26.0,0
2018-03-23,5,1733.3,25.7,0
2018-03-23,6,1754.3,25.5,0
2018-03-23,7,1763.1,25.2,0
2018-03-23,8,1654.1,25.8,0
2018-03-23,9,1536.0,27.1,0
2018-03-23,10,1620.2,28.6,0
2018-03-23,11,1689.8,29.9,0
2018-03-23,12,1720.9,30.5,0
2018-03-23,13,1726.0,29.4,0
2018-03-23,14,1688.7,30.5,0
2018-03-23,15,1698.2,29.8,0
2018-03-23,16,1741.9,29.8,0
2018-03-23,17,1754.2,28.9,0
2018-03-23,18,1739.5,28.4,0
2018-03-23,19,1735.5,27.8,0
2018-03-23,20,1909.78,27.1,0
2018-03-23,21,2046.84,27.0,0
2018-03-23,22,2078.4,25.5,0
2018-03-23,23,2013.9,25.6,0
2018-03-23,24,1871.0,24.8,0
2018-03-24,1,1821.5,25.1,0
2018-03-24,2,1741.2,24.6,0
2018-03-24,3,1681.9,24.5,0
2018-03-24,4,1647.4,24.0,0
2018-03-24,5,1590.0,24.0,0
2018-03-24,6,1583.6,24.0,0
2018-03-24,7,1592.1,24.0,0
2018-03-24,8,1443.6,24.6,0
2018-03-24,9,1461.1,25.5,0
2018-03-24,10,1473.4,26.4,0
2018-03-24,11,1424.6,27.8,0
2018-03-24,12,1424.1,28.6,0
2018-03-24,13,1494.5,28.1,0
2018-03-24,14,1498.6,28.2,0
2018-03-24,15,1480.4,28.2,0
2018-03-24,16,1596.4,28.3,0
2018-03-24,17,1561.2,28.1,0
2018-03-24,18,1553.1,27.5,0
2018-03-24,19,1503.6,27.0,0
2018-03-24,20,1843.95,26.7,0
2018-03-24,21,1991.83,26.5,0
2018-03-24,22,2039.5,26.2,0
2018-03-24,23,2038.6,26.0,0
2018-03-24,24,1951.1,26.0,0
2018-03-25,1,1895.5,25.5,0
2018-03-25,2,1689.3,25.8,0
2018-03-25,3,1694.9,25.4,0
2018-03-25,4,1633.4,25.1,0
2018-03-25,5,1627.4,24.9,0
2018-03-25,6,1585.3,24.5,0
2018-03-25,7,1708.1,24.4,0
2018-03-25,8,1561.2,24.9,0
2018-03-25,9,1409.2,26.4,0
2018-03-25,10,1388.7,27.9,0
2018-03-25,11,1344.8,29.4,0
2018-03-25,12,1318.5,30.0,0
2018-03-25,13,1335.2,30.5,0
2018-03-25,14,1386.1,30.5,0
2018-03-25,15,1376.4,29.4,0
2018-03-25,16,1436.9,30.4,0
2018-03-25,17,1453.0,29.5,0
2018-03-25,18,1415.6,28.9,0
2018-03-25,19,1540.7,27.9,0
2018-03-25,20,1695.45,27.3,0
2018-03-25,21,1882.34,26.9,0
2018-03-25,22,1995.2,26.9,0
2018-03-25,23,2011.2,26.6,0
2018-03-25,24,1863.3,26.5,0
2018-03-26,1,1791.2,26.0,0
2018-03-26,2,1798.6,26.1,0
2018-03-26,3,1736.3,25.8,0
2018-03-26,4,1731.6,25.7,0
2018-03-26,5,1678.3,25.6,0
2018-03-26,6,1660.8,25.4,0
2018-03-26,7,1707.1,25.0,0
2018-03-26,8,1565.3,25.6,0
2018-03-26,9,1525.1,26.9,0
2018-03-26,10,1500.0,28.6,0
2018-03-26,11,1531.7,29.8,0
2018-03-26,12,1550.2,30.6,0
2018-03-26,13,1590.7,29.9,0
2018-03-26,14,1621.7,30.9,0
2018-03-26,15,1677.2,30.6,0
2018-03-26,16,1671.1,30.1,0
2018-03-26,17,1690.0,29.6,0
2018-03-26,18,1664.4,28.8,0
2018-03-26,19,1689.1,27.9,0
2018-03-26,20,1971.19,27.6,0
2018-03-26,21,2105.49,27.5,0
2018-03-26,22,2099.7,27.3,0
2018-03-26,23,2048.8,27.1,0
2018-03-26,24,1931.2,27.0,0
2018-03-27,1,1922.1,26.9,0
2018-03-27,2,1836.9,26.9,0
2018-03-27,3,1748.2,26.5,0
2018-03-27,4,1698.8,26.2,0
2018-03-27,5,1713.2,25.9,0
2018-03-27,6,1775.2,25.6,0
2018-03-27,7,1810.8,25.5,0
2018-03-27,8,1602.7,26.0,0
2018-03-27,9,1597.9,27.5,0
2018-03-27,10,1590.7,29.2,0
2018-03-27,11,1656.2,30.6,0
2018-03-27,12,1644.7,31.4,0
2018-03-27,13,1684.3,30.5,0
2018-03-27,14,1700.4,31.0,0
2018-03-27,15,1741.1,30.6,0
2018-03-27,16,1705.8,30.5,0
2018-03-27,17,1751.7,29.8,0
2018-03-27,18,1753.4,29.0,0
2018-03-27,19,1772.6,28.4,0
2018-03-27,20,2000.45,27.8,0
2018-03-27,21,2011.78,27.5,0
2018-03-27,22,2086.9,27.2,0
2018-03-27,23,2080.5,27.0,0
2018-03-27,24,1975.0,26.9,0
2018-03-28,1,1909.6,26.8,0
2018-03-28,2,1857.06,26.8,0
2018-03-28,3,1778.06,26.5,0
2018-03-28,4,1722.13,26.4,0
2018-03-28,5,1850.43,26.0,0
2018-03-28,6,1866.93,25.9,0
2018-03-28,7,1861.73,25.7,0
2018-03-28,8,1663.23,26.3,0
2018-03-28,9,1644.23,27.7,0
2018-03-28,10,1690.13,29.5,0
2018-03-28,11,1708.23,30.7,0
2018-03-28,12,1692.53,31.2,0
2018-03-28,13,1705.43,30.2,0
2018-03-28,14,1711.63,30.5,0
2018-03-28,15,1715.03,30.2,0
2018-03-28,16,1787.43,29.1,0
2018-03-28,17,1806.63,28.9,0
2018-03-28,18,1793.93,28.5,0
2018-03-28,19,1841.23,27.6,0
2018-03-28,20,2031.93,27.1,0
2018-03-28,21,2144.83,26.7,0
2018-03-28,22,2114.93,26.5,0
2018-03-28,23,2138.63,26.4,0
2018-03-28,24,1990.03,26.1,0
2018-03-29,1,1920.13,26.2,0
2018-03-29,2,1840.0,26.1,0
2018-03-29,3,1830.7,25.8,0
2018-03-29,4,1755.3,25.5,0
2018-03-29,5,1709.9,25.4,0
2018-03-29,6,1673.1,25.2,0
2018-03-29,7,1665.0,25.1,0
2018-03-29,8,1612.3,25.6,0
2018-03-29,9,1582.6,26.9,0
2018-03-29,10,1613.6,28.1,0
2018-03-29,11,1575.7,28.8,0
2018-03-29,12,1635.1,29.4,0
2018-03-29,13,1636.1,30.1,0
2018-03-29,14,1594.7,30.0,0
2018-03-29,15,1665.1,29.7,0
2018-03-29,16,1680.8,29.2,0
2018-03-29,17,1682.2,28.9,0
2018-03-29,18,1656.9,28.1,0
2018-03-29,19,1721.1,27.2,0
2018-03-29,20,1995.87,26.9,0
2018-03-29,21,2075.43,26.6,0
2018-03-29,22,2127.7,26.3,0
2018-03-29,23,2086.5,26.1,0
2018-03-29,24,1985.1,26.0,0
2018-03-30,1,1935.0,26.3,1
2018-03-30,2,1840.4,26.2,1
2018-03-30,3,1838.3,25.8,1
2018-03-30,4,1790.4,25.5,1
2018-03-30,5,1796.0,25.2,1
2018-03-30,6,1750.8,25.0,1
2018-03-30,7,1752.2,24.8,1
2018-03-30,8,1622.0,25.6,1
2018-03-30,9,1605.2,27.2,1
2018-03-30,10,1596.8,28.8,1
2018-03-30,11,1545.4,29.9,1
2018-03-30,12,1529.1,29.9,1
2018-03-30,13,1524.4,29.6,1
2018-03-30,14,1515.1,30.0,1
2018-03-30,15,1558.3,30.1,1
2018-03-30,16,1623.6,29.5,1
2018-03-30,17,1562.7,29.1,1
2018-03-30,18,1523.3,28.2,1
2018-03-30,19,1582.7,27.6,1
2018-03-30,20,1915.08,27.4,1
2018-03-30,21,1961.4,27.2,1
2018-03-30,22,1984.6,27.0,1
2018-03-30,23,1932.5,26.8,1
2018-03-30,24,1868.9,26.5,1
2018-03-31,1,1840.2,26.0,0
2018-03-31,2,1760.44,26.0,0
2018-03-31,3,1731.42,25.8,0
2018-03-31,4,1731.62,25.2,0
2018-03-31,5,1697.51,25.0,0
2018-03-31,6,1685.31,24.8,0
2018-03-31,7,1601.67,24.7,0
2018-03-31,8,1544.86,25.6,0
2018-03-31,9,1467.61,27.4,0
2018-03-31,10,1507.77,29.3,0
2018-03-31,11,1514.38,30.8,0
2018-03-31,12,1550.38,31.3,0
2018-03-31,13,1586.46,30.6,0
2018-03-31,14,1614.7,31.0,0
2018-03-31,15,1678.37,30.9,0
2018-03-31,16,1669.03,30.6,0
2018-03-31,17,1654.83,29.8,0
2018-03-31,18,1645.25,28.8,0
2018-03-31,19,1679.6,28.1,0
2018-03-31,20,1919.28,27.6,0
2018-03-31,21,1935.31,27.4,0
2018-03-31,22,1945.41,27.1,0
2018-03-31,23,1951.41,26.9,0
2018-03-31,24,1957.7,26.7,0
2018-04-01,1,1888.69,26.2,1
2018-04-01,2,1829.43,26.4,1
2018-04-01,3,1810.93,26.2,1
2018-04-01,4,1731.85,26.0,1
2018-04-01,5,1734.35,25.8,1
2018-04-01,6,1739.29,25.6,1
2018-04-01,7,1680.05,25.5,1
2018-04-01,8,1654.84,26.1,1
2018-04-01,9,1533.75,27.4,1
2018-04-01,10,1450.34,29.1,1
2018-04-01,11,1491.67,30.6,1
2018-04-01,12,1397.37,31.6,1
2018-04-01,13,1458.65,32.9,1
2018-04-01,14,1473.63,29.3,1
2018-04-01,15,1536.53,30.0,1
2018-04-01,16,1569.83,28.9,1
2018-04-01,17,1609.0,29.1,1
2018-04-01,18,1635.92,28.4,1
2018-04-01,19,1620.83,27.5,1
2018-04-01,20,1845.81,27.0,1
2018-04-01,21,1971.39,26.9,1
2018-04-01,22,1936.24,26.8,1
2018-04-01,23,1968.26,26.8,1
2018-04-01,24,1856.07,26.5,1
2018-04-02,1,1752.73,27.2,1
2018-04-02,2,1707.67,27.0,1
2018-04-02,3,1714.37,26.6,1
2018-04-02,4,1694.31,26.1,1
2018-04-02,5,1633.79,26.1,1
2018-04-02,6,1608.29,26.1,1
2018-04-02,7,1550.67,26.0,1
2018-04-02,8,1469.11,26.4,1
2018-04-02,9,1401.16,27.8,1
2018-04-02,10,1451.94,29.0,1
2018-04-02,11,1458.63,29.4,1
2018-04-02,12,1420.07,30.0,1
2018-04-02,13,1481.64,31.0,1
2018-04-02,14,1503.04,31.4,1
2018-04-02,15,1563.44,29.7,1
2018-04-02,16,1545.66,30.5,1
2018-04-02,17,1476.61,29.2,1
2018-04-02,18,1521.21,28.5,1
2018-04-02,19,1553.25,27.2,1
2018-04-02,20,1830.6,26.5,1
2018-04-02,21,1924.9,26.3,1
2018-04-02,22,1986.19,26.0,1
2018-04-02,23,1950.52,25.9,1
2018-04-02,24,1802.75,25.9,1
2018-04-03,1,1691.57,26.5,0
2018-04-03,2,1695.62,26.5,0
2018-04-03,3,1689.05,26.2,0
2018-04-03,4,1684.22,26.0,0
2018-04-03,5,1674.13,25.9,0
2018-04-03,6,1660.18,25.8,0
2018-04-03,7,1694.85,25.9,0
2018-04-03,8,1547.2,26.2,0
2018-04-03,9,1549.95,27.7,0
2018-04-03,10,1637.54,29.1,0
2018-04-03,11,1664.26,29.6,0
2018-04-03,12,1607.47,29.8,0
2018-04-03,13,1688.89,30.1,0
2018-04-03,14,1661.5,30.6,0
2018-04-03,15,1716.63,30.2,0
2018-04-03,16,1747.83,30.1,0
2018-04-03,17,1729.49,29.4,0
2018-04-03,18,1826.08,28.7,0
2018-04-03,19,1844.69,28.0,0
2018-04-03,20,1950.45,27.5,0
2018-04-03,21,2082.37,27.2,0
2018-04-03,22,2107.88,27.1,0
2018-04-03,23,2103.28,26.9,0
2018-04-03,24,1875.36,26.5,0
2018-04-04,1,1840.94,26.4,0
2018-04-04,2,1794.94,26.5,0
2018-04-04,3,1765.74,26.0,0
2018-04-04,4,1737.64,25.7,0
2018-04-04,5,1652.94,25.6,0
2018-04-04,6,1760.95,25.4,0
2018-04-04,7,1689.19,25.2,0
2018-04-04,8,1553.55,25.8,0
2018-04-04,9,1568.91,26.9,0
2018-04-04,10,1648.69,29.0,0
2018-04-04,11,1701.58,30.4,0
2018-04-04,12,1745.44,30.8,0
2018-04-04,13,1783.28,30.7,0
2018-04-04,14,1711.39,30.5,0
2018-04-04,15,1717.3,30.3,0
2018-04-04,16,1769.04,29.9,0
2018-04-04,17,1766.9,29.5,0
2018-04-04,18,1781.45,28.9,0
2018-04-04,19,1796.66,28.1,0
2018-04-04,20,1817.6,27.7,0
2018-04-04,21,1961.72,27.5,0
2018-04-04,22,1907.19,27.2,0
2018-04-04,23,1940.47,27.0,0
2018-04-04,24,1836.26,26.6,0
2018-04-05,1,1787.41,26.6,0
2018-04-05,2,1700.94,26.5,0
2018-04-05,3,1680.94,26.2,0
2018-04-05,4,1536.08,26.0,0
2018-04-05,5,1617.34,25.7,0
2018-04-05,6,1595.84,25.4,0
2018-04-05,7,1633.14,25.0,0
2018-04-05,8,1543.96,25.8,0
2018-04-05,9,1518.55,27.5,0
2018-04-05,10,1608.23,29.3,0
2018-04-05,11,1605.72,30.8,0
2018-04-05,12,1626.81,31.0,0
2018-04-05,13,1680.83,30.3,0
2018-04-05,14,1716.23,31.3,0
2018-04-05,15,1719.55,30.5,0
2018-04-05,16,1693.9,30.4,0
2018-04-05,17,1806.65,29.5,0
2018-04-05,18,1776.18,28.9,0
2018-04-05,19,1790.91,28.1,0
2018-04-05,20,2075.77,27.5,0
2018-04-05,21,2059.81,27.3,0
2018-04-05,22,2120.8,27.1,0
2018-04-05,23,2107.07,26.9,0
2018-04-05,24,1951.08,26.5,0
2018-04-06,1,1897.94,26.4,0
2018-04-06,2,1857.75,26.5,0
2018-04-06,3,1822.8,26.1,0
2018-04-06,4,1727.6,26.0,0
2018-04-06,5,1616.59,25.7,0
2018-04-06,6,1814.78,25.4,0
2018-04-06,7,1797.79,25.1,0
2018-04-06,8,1645.86,26.0,0
2018-04-06,9,1632.64,27.8,0
2018-04-06,10,1665.11,29.8,0
2018-04-06,11,1688.93,31.3,0
2018-04-06,12,1708.88,31.9,0
2018-04-06,13,1723.13,31.9,0
2018-04-06,14,1721.4,31.6,0
2018-04-06,15,1710.08,31.1,0
2018-04-06,16,1727.83,30.6,0
2018-04-06,17,1733.23,29.9,0
2018-04-06,18,1740.59,29.0,0
2018-04-06,19,1664.0,28.1,0
2018-04-06,20,2033.99,27.9,0
2018-04-06,21,2115.11,27.6,0
2018-04-06,22,2106.45,27.4,0
2018-04-06,23,2094.21,27.1,0
2018-04-06,24,1984.41,26.8,0
2018-04-07,1,1921.4,26.7,0
2018-04-07,2,1881.7,26.4,0
2018-04-07,3,1790.8,26.1,0
2018-04-07,4,1722.7,26.0,0
2018-04-07,5,1679.6,25.6,0
2018-04-07,6,1570.1,25.6,0
2018-04-07,7,1482.2,25.5,0
2018-04-07,8,1379.3,26.1,0
2018-04-07,9,1401.8,27.4,0
2018-04-07,10,1450.4,29.0,0
2018-04-07,11,1457.8,30.2,0
2018-04-07,12,1473.7,30.5,0
2018-04-07,13,1535.8,30.8,0
2018-04-07,14,1525.8,30.8,0
2018-04-07,15,1580.4,30.5,0
2018-04-07,16,1571.5,30.0,0
2018-04-07,17,1613.7,29.4,0
2018-04-07,18,1606.2,28.6,0
2018-04-07,19,1598.4,28.0,0
2018-04-07,20,1893.86,27.7,0
2018-04-07,21,1926.01,27.5,0
2018-04-07,22,1949.9,27.3,0
2018-04-07,23,1883.7,26.9,0
2018-04-07,24,1796.6,26.6,0
2018-04-08,1,1688.3,26.5,0
2018-04-08,2,1653.9,26.4,0
2018-04-08,3,1612.5,26.0,0
2018-04-08,4,1531.9,25.9,0
2018-04-08,5,1532.3,25.6,0
2018-04-08,6,1519.8,25.5,0
2018-04-08,7,1478.3,25.2,0
2018-04-08,8,1416.4,25.9,0
2018-04-08,9,1328.9,27.4,0
2018-04-08,10,1473.2,28.3,0
2018-04-08,11,1334.7,28.7,0
2018-04-08,12,1333.0,29.5,0
2018-04-08,13,1335.0,28.5,0
2018-04-08,14,1381.0,27.9,0
2018-04-08,15,1451.2,27.8,0
2018-04-08,16,1459.0,28.2,0
2018-04-08,17,1435.6,28.5,0
2018-04-08,18,1458.7,28.1,0
2018-04-08,19,1499.1,26.8,0
2018-04-08,20,1816.2,26.2,0
2018-04-08,21,1896.32,26.3,0
2018-04-08,22,1975.3,26.1,0
2018-04-08,23,1900.0,25.9,0
2018-04-08,24,1762.5,25.6,0
2018-04-09,1,1767.8,25.5,0
2018-04-09,2,1738.0,25.8,0
2018-04-09,3,1652.4,25.2,0
2018-04-09,4,1650.6,24.8,0
2018-04-09,5,1616.9,24.6,0
2018-04-09,6,1656.5,24.4,0
2018-04-09,7,1691.9,24.3,0
2018-04-09,8,1536.5,25.0,0
2018-04-09,9,1552.0,26.7,0
2018-04-09,10,1508.8,28.5,0
2018-04-09,11,1613.3,30.0,0
2018-04-09,12,1757.1,30.4,0
2018-04-09,13,1766.8,30.8,0
2018-04-09,14,1737.6,30.1,0
2018-04-09,15,1796.1,29.8,0
2018-04-09,16,1824.0,29.5,0
2018-04-09,17,1873.5,28.8,0
2018-04-09,18,1829.8,28.0,0
2018-04-09,19,1793.7,27.2,0
2018-04-09,20,1975.99,26.8,0
2018-04-09,21,2008.72,26.5,0
2018-04-09,22,2189.1,26.3,0
2018-04-09,23,2168.7,26.0,0
2018-04-09,24,2076.0,25.6,0
2018-04-10,1,1890.2,26.0,0
2018-04-10,2,1802.17,25.6,0
2018-04-10,3,1714.6,25.2,0
2018-04-10,4,1684.22,24.6,0
2018-04-10,5,1674.13,24.0,0
2018-04-10,6,1660.18,23.8,0
2018-04-10,7,1694.85,23.9,0
2018-04-10,8,1547.2,24.0,0
2018-04-10,9,1549.95,24.7,0
2018-04-10,10,1637.54,25.4,0
2018-04-10,11,1664.26,26.5,0
2018-04-10,12,1607.47,27.2,0
2018-04-10,13,1688.89,28.0,0
2018-04-10,14,1661.5,28.5,0
2018-04-10,15,1716.63,28.8,0
2018-04-10,16,1747.83,28.3,0
2018-04-10,17,1729.49,27.5,0
2018-04-10,18,1826.08,27.4,0
2018-04-10,19,1844.69,26.7,0
2018-04-10,20,1950.45,26.4,0
2018-04-10,21,2082.37,26.4,0
2018-04-10,22,2107.88,26.2,0
2018-04-10,23,2103.28,26.0,0
2018-04-10,24,1875.36,25.6,0
2018-04-11,1,1840.94,25.1,0
2018-04-11,2,1703.7,25.1,0
2018-04-11,3,1642.9,24.7,0
2018-04-11,4,1599.9,24.5,0
2018-04-11,5,1591.6,24.7,0
2018-04-11,6,1619.1,24.6,0
2018-04-11,7,1677.5,24.5,0
2018-04-11,8,1481.4,24.6,0
2018-04-11,9,1470.7,26.1,0
2018-04-11,10,1521.2,27.1,0
2018-04-11,11,1599.2,28.4,0
2018-04-11,12,1618.7,29.4,0
2018-04-11,13,1597.9,28.9,0
2018-04-11,14,1647.3,28.5,0
2018-04-11,15,1687.6,28.8,0
2018-04-11,16,1750.9,28.7,0
2018-04-11,17,1692.2,28.5,0
2018-04-11,18,1727.9,28.2,0
2018-04-11,19,1715.6,27.4,0
2018-04-11,20,1991.48,26.9,0
2018-04-11,21,2087.21,26.6,0
2018-04-11,22,2100.8,26.6,0
2018-04-11,23,2076.2,26.5,0
2018-04-11,24,1953.0,26.4,0
2018-04-12,1,1898.4,26.4,0
2018-04-12,2,1851.7,26.2,0
2018-04-12,3,1869.4,25.7,0
2018-04-12,4,1761.4,25.1,0
2018-04-12,5,1726.1,24.9,0
2018-04-12,6,1730.2,24.2,0
2018-04-12,7,1752.6,24.4,0
2018-04-12,8,1582.7,25.2,0
2018-04-12,9,1653.9,26.7,0
2018-04-12,10,1639.9,27.5,0
2018-04-12,11,1675.7,29.1,0
2018-04-12,12,1698.4,30.3,0
2018-04-12,13,1741.2,30.0,0
2018-04-12,14,1732.0,29.7,0
2018-04-12,15,1753.2,29.4,0
2018-04-12,16,1797.5,29.5,0
2018-04-12,17,1848.3,28.6,0
2018-04-12,18,1805.4,28.3,0
2018-04-12,19,1692.9,27.5,0
2018-04-12,20,1932.61,27.1,0
2018-04-12,21,2041.75,27.1,0
2018-04-12,22,1969.2,27.1,0
2018-04-12,23,2007.3,27.1,0
2018-04-12,24,1960.7,26.8,0
2018-04-13,1,1881.4,26.8,0
2018-04-13,2,1825.2,26.6,0
2018-04-13,3,1825.8,26.2,0
2018-04-13,4,1800.2,25.9,0
2018-04-13,5,1774.8,25.4,0
2018-04-13,6,1762.2,25.2,0
2018-04-13,7,1668.3,25.0,0
2018-04-13,8,1583.3,25.8,0
2018-04-13,9,1615.2,27.5,0
2018-04-13,10,1696.5,29.1,0
2018-04-13,11,1728.5,30.5,0
2018-04-13,12,1754.4,31.0,0
2018-04-13,13,1796.2,30.2,0
2018-04-13,14,1728.4,30.5,0
2018-04-13,15,1812.2,30.5,0
2018-04-13,16,1770.8,29.7,0
2018-04-13,17,1804.3,29.4,0
2018-04-13,18,1756.2,28.9,0
2018-04-13,19,1733.0,28.1,0
2018-04-13,20,2020.36,27.7,0
2018-04-13,21,2086.29,27.4,0
2018-04-13,22,2138.7,27.1,0
2018-04-13,23,2152.9,26.9,0
2018-04-13,24,2006.8,26.5,0
2018-04-14,1,1922.0,26.5,0
2018-04-14,2,1860.3,26.2,0
2018-04-14,3,1861.7,26.0,0
2018-04-14,4,1759.7,25.8,0
2018-04-14,5,1760.0,25.4,0
2018-04-14,6,1757.6,25.1,0
2018-04-14,7,1605.8,24.9,0
2018-04-14,8,1568.9,25.8,0
2018-04-14,9,1539.4,27.5,0
2018-04-14,10,1599.1,29.4,0
2018-04-14,11,1579.7,30.8,0
2018-04-14,12,1579.3,31.8,0
2018-04-14,13,1616.0,31.3,0
2018-04-14,14,1560.1,30.2,0
2018-04-14,15,1568.3,30.0,0
2018-04-14,16,1662.2,30.5,0
2018-04-14,17,1558.8,29.8,0
2018-04-14,18,1687.9,29.1,0
2018-04-14,19,1689.7,28.1,0
2018-04-14,20,1925.67,27.8,0
2018-04-14,21,2026.33,27.5,0
2018-04-14,22,2035.7,27.1,0
2018-04-14,23,2030.4,26.8,0
2018-04-14,24,1958.8,26.5,0
2018-04-15,1,1887.3,26.5,0
2018-04-15,2,1837.69,26.3,0
2018-04-15,3,1647.51,25.7,0
2018-04-15,4,1679.41,25.6,0
2018-04-15,5,1626.61,25.5,0
2018-04-15,6,1670.21,25.4,0
2018-04-15,7,1626.23,25.0,0
2018-04-15,8,1512.12,26.0,0
2018-04-15,9,1414.75,27.5,0
2018-04-15,10,1443.0,29.4,0
2018-04-15,11,1392.6,31.0,0
2018-04-15,12,1396.31,32.3,0
2018-04-15,13,1277.39,31.6,0
2018-04-15,14,1400.77,31.5,0
2018-04-15,15,1478.84,29.6,0
2018-04-15,16,1521.94,30.4,0
2018-04-15,17,1545.66,29.9,0
2018-04-15,18,1533.5,29.0,0
2018-04-15,19,1521.86,27.8,0
2018-04-15,20,1848.67,27.0,0
2018-04-15,21,2011.56,26.6,0
2018-04-15,22,2064.8,26.4,0
2018-04-15,23,2044.14,26.1,0
2018-04-15,24,1947.74,26.0,0
2018-04-16,1,1991.89,26.4,0
2018-04-16,2,1744.3,26.6,0
2018-04-16,3,1732.1,26.6,0
2018-04-16,4,1747.0,26.2,0
2018-04-16,5,1682.6,26.0,0
2018-04-16,6,1652.2,25.6,0
2018-04-16,7,1691.7,25.4,0
2018-04-16,8,1624.9,26.0,0
2018-04-16,9,1616.0,26.8,0
2018-04-16,10,1677.1,28.4,0
2018-04-16,11,1720.7,29.8,0
2018-04-16,12,1784.3,31.0,0
2018-04-16,13,1783.1,30.9,0
2018-04-16,14,1883.9,30.5,0
2018-04-16,15,1829.0,29.6,0
2018-04-16,16,1700.4,29.9,0
2018-04-16,17,1790.4,29.1,0
2018-04-16,18,1777.8,28.3,0
2018-04-16,19,1778.7,27.7,0
2018-04-16,20,2024.02,27.4,0
2018-04-16,21,2111.26,27.4,0
2018-04-16,22,2145.1,27.1,0
2018-04-16,23,2086.3,27.0,0
2018-04-16,24,1996.0,26.8,0
2018-04-17,1,1891.0,26.8,0
2018-04-17,2,1923.69,26.5,0
2018-04-17,3,1844.48,26.2,0
2018-04-17,4,1806.89,26.0,0
2018-04-17,5,1772.89,25.9,0
2018-04-17,6,1764.01,25.7,0
2018-04-17,7,1740.62,25.6,0
2018-04-17,8,1651.14,26.4,0
2018-04-17,9,1668.21,27.6,0
2018-04-17,10,1705.03,28.9,0
2018-04-17,11,1660.22,29.8,0
2018-04-17,12,1743.06,29.8,0
2018-04-17,13,1788.51,29.9,0
2018-04-17,14,1838.57,30.1,0
2018-04-17,15,1790.5,29.6,0
2018-04-17,16,1849.2,29.4,0
2018-04-17,17,1814.1,28.9,0
2018-04-17,18,1781.47,28.4,0
2018-04-17,19,1618.89,27.7,0
2018-04-17,20,2091.28,27.2,0
2018-04-17,21,2144.65,26.8,0
2018-04-17,22,2177.45,26.6,0
2018-04-17,23,2122.07,26.4,0
2018-04-17,24,2001.62,26.3,0
2018-04-18,1,1948.65,26.7,0
2018-04-18,2,1916.78,26.3,0
2018-04-18,3,1866.22,25.9,0
2018-04-18,4,1835.56,25.6,0
2018-04-18,5,1790.66,25.8,0
2018-04-18,6,1793.9,25.5,0
2018-04-18,7,1668.5,25.5,0
2018-04-18,8,1659.29,26.1,0
2018-04-18,9,1703.9,27.3,0
2018-04-18,10,1618.12,28.5,0
2018-04-18,11,1718.27,29.5,0
2018-04-18,12,1711.16,29.5,0
2018-04-18,13,1717.4,29.3,0
2018-04-18,14,1781.55,29.4,0
2018-04-18,15,1824.71,29.2,0
2018-04-18,16,1809.28,29.2,0
2018-04-18,17,1840.73,28.6,0
2018-04-18,18,1802.58,28.3,0
2018-04-18,19,1711.31,27.8,0
2018-04-18,20,2156.25,27.2,0
2018-04-18,21,2119.92,27.0,0
2018-04-18,22,2139.11,26.9,0
2018-04-18,23,2127.21,26.6,0
2018-04-18,24,2025.2,26.3,0
2018-04-19,1,1973.93,26.2,0
2018-04-19,2,1863.5,26.0,0
2018-04-19,3,1805.5,25.8,0
2018-04-19,4,1746.1,25.6,0
2018-04-19,5,1719.6,25.4,0
2018-04-19,6,1738.0,25.1,0
2018-04-19,7,1673.4,25.0,0
2018-04-19,8,1632.9,25.7,0
2018-04-19,9,1673.9,27.5,0
2018-04-19,10,1782.0,29.3,0
2018-04-19,11,1769.3,30.8,0
2018-04-19,12,1800.9,31.4,0
2018-04-19,13,1770.0,30.8,0
2018-04-19,14,1796.7,30.9,0
2018-04-19,15,1809.3,30.0,0
2018-04-19,16,1819.8,30.0,0
2018-04-19,17,1821.3,29.5,0
2018-04-19,18,1828.0,28.9,0
2018-04-19,19,1658.0,28.0,0
2018-04-19,20,2051.22,27.6,0
2018-04-19,21,2151.43,27.4,0
2018-04-19,22,2178.3,27.2,0
2018-04-19,23,2135.1,26.9,0
2018-04-19,24,1996.2,26.6,0
2018-04-20,1,1886.9,27.0,0
2018-04-20,2,1863.7,26.8,0
2018-04-20,3,1834.1,26.5,0
2018-04-20,4,1762.3,26.1,0
2018-04-20,5,1721.1,25.9,0
2018-04-20,6,1797.2,25.5,0
2018-04-20,7,1693.2,25.4,0
2018-04-20,8,1558.1,26.0,0
2018-04-20,9,1696.6,27.5,0
2018-04-20,10,1690.7,29.1,0
2018-04-20,11,1730.0,30.1,0
2018-04-20,12,1768.6,30.5,0
2018-04-20,13,1788.1,28.9,0
2018-04-20,14,1647.1,30.4,0
2018-04-20,15,1718.4,28.5,0
2018-04-20,16,1489.3,27.8,0
2018-04-20,17,1569.2,27.0,0
2018-04-20,18,1554.8,26.5,0
2018-04-20,19,1541.5,26.1,0
2018-04-20,20,1916.32,25.9,0
2018-04-20,21,1977.3,25.8,0
2018-04-20,22,2006.5,26.0,0
2018-04-20,23,1977.9,26.1,0
2018-04-20,24,1801.0,26.0,0
2018-04-21,1,1718.3,26.5,0
2018-04-21,2,1628.4,26.0,0
2018-04-21,3,1603.3,25.8,0
2018-04-21,4,1590.7,25.7,0
2018-04-21,5,1524.6,25.7,0
2018-04-21,6,1504.1,25.6,0
2018-04-21,7,1451.0,25.6,0
2018-04-21,8,1369.9,26.2,0
2018-04-21,9,1463.9,27.7,0
2018-04-21,10,1485.1,29.0,0
2018-04-21,11,1461.4,29.5,0
2018-04-21,12,1531.2,30.0,0
2018-04-21,13,1539.8,29.7,0
2018-04-21,14,1552.7,29.7,0
2018-04-21,15,1563.4,29.8,0
2018-04-21,16,1535.8,28.9,0
2018-04-21,17,1628.9,28.0,0
2018-04-21,18,1638.5,27.5,0
2018-04-21,19,1605.9,27.0,0
2018-04-21,20,1981.81,26.5,0
2018-04-21,21,2069.38,26.4,0
2018-04-21,22,2081.8,26.4,0
2018-04-21,23,2026.1,26.4,0
2018-04-21,24,1919.2,26.2,0
2018-04-22,1,1838.4,25.9,0
2018-04-22,2,1832.3,25.9,0
2018-04-22,3,1751.7,25.6,0
2018-04-22,4,1677.9,25.3,0
2018-04-22,5,1652.6,25.1,0
2018-04-22,6,1700.8,24.8,0
2018-04-22,7,1564.8,24.6,0
2018-04-22,8,1492.3,25.5,0
2018-04-22,9,1459.4,27.0,0
2018-04-22,10,1403.2,28.7,0
2018-04-22,11,1397.9,29.6,0
2018-04-22,12,1434.1,30.4,0
2018-04-22,13,1460.5,30.1,0
2018-04-22,14,1493.9,30.2,0
2018-04-22,15,1573.1,30.0,0
2018-04-22,16,1616.2,29.7,0
2018-04-22,17,1589.3,29.1,0
2018-04-22,18,1603.7,28.7,0
2018-04-22,19,1657.5,28.1,0
2018-04-22,20,1792.22,27.5,0
2018-04-22,21,1965.23,27.0,0
2018-04-22,22,2054.2,26.5,0
2018-04-22,23,1996.3,26.3,0
2018-04-22,24,1890.8,26.0,0
2018-04-23,1,1786.1,26.7,0
2018-04-23,2,1683.0,26.7,0
2018-04-23,3,1658.9,26.4,0
2018-04-23,4,1622.3,26.0,0
2018-04-23,5,1587.6,25.8,0
2018-04-23,6,1592.7,25.5,0
2018-04-23,7,1588.1,25.3,0
2018-04-23,8,1486.1,26.2,0
2018-04-23,9,1655.6,27.9,0
2018-04-23,10,1705.7,29.2,0
2018-04-23,11,1710.3,29.9,0
2018-04-23,12,1728.1,30.5,0
2018-04-23,13,1811.2,30.8,0
2018-04-23,14,1813.9,31.1,0
2018-04-23,15,1827.7,30.8,0
2018-04-23,16,1794.3,30.5,0
2018-04-23,17,1796.0,29.8,0
2018-04-23,18,1848.8,29.0,0
2018-04-23,19,1783.3,28.2,0
2018-04-23,20,2035.68,27.8,0
2018-04-23,21,2094.78,27.8,0
2018-04-23,22,2192.7,27.6,0
2018-04-23,23,2130.3,27.4,0
2018-04-23,24,1971.0,27.0,0
2018-04-24,1,1968.7,27.0,0
2018-04-24,2,1873.7,26.8,0
2018-04-24,3,1836.0,26.3,0
2018-04-24,4,1824.7,26.1,0
2018-04-24,5,1785.3,26.0,0
2018-04-24,6,1799.7,25.6,0
2018-04-24,7,1718.8,25.4,0
2018-04-24,8,1628.3,26.4,0
2018-04-24,9,1641.3,27.9,0
2018-04-24,10,1709.4,30.0,0
2018-04-24,11,1710.4,31.5,0
2018-04-24,12,1819.2,32.2,0
2018-04-24,13,1750.9,30.6,0
2018-04-24,14,1775.1,30.9,0
2018-04-24,15,1888.2,30.8,0
2018-04-24,16,1768.1,29.7,0
2018-04-24,17,1807.1,29.3,0
2018-04-24,18,1779.4,29.1,0
2018-04-24,19,1768.1,28.4,0
2018-04-24,20,2021.57,28.0,0
2018-04-24,21,2136.29,27.8,0
2018-04-24,22,2158.4,27.5,0
2018-04-24,23,2135.6,27.2,0
2018-04-24,24,2004.9,26.7,0
2018-04-25,1,1965.1,26.7,0
2018-04-25,2,1860.0,26.8,0
2018-04-25,3,1825.7,26.5,0
2018-04-25,4,1803.0,26.1,0
2018-04-25,5,1749.7,25.9,0
2018-04-25,6,1778.4,25.6,0
2018-04-25,7,1690.2,25.5,0
2018-04-25,8,1656.5,26.6,0
2018-04-25,9,1661.9,28.5,0
2018-04-25,10,1765.1,30.1,0
2018-04-25,11,1727.3,30.9,0
2018-04-25,12,1821.0,31.5,0
2018-04-25,13,1593.3,31.5,0
2018-04-25,14,1635.1,31.0,0
2018-04-25,15,1778.1,31.0,0
2018-04-25,16,1861.9,30.1,0
2018-04-25,17,1800.5,29.9,0
2018-04-25,18,1781.8,29.2,0
2018-04-25,19,1690.5,28.4,0
2018-04-25,20,1788.25,28.0,0
2018-04-25,21,1963.38,27.8,0
2018-04-25,22,1980.4,27.6,0
2018-04-25,23,2011.1,27.5,0
2018-04-25,24,1841.2,26.8,0
2018-04-26,1,1789.4,27.2,0
2018-04-26,2,1755.4,26.8,0
2018-04-26,3,1690.5,25.5,0
2018-04-26,4,1693.6,24.7,0
2018-04-26,5,1676.8,24.0,0
2018-04-26,6,1668.1,24.1,0
2018-04-26,7,1670.1,24.2,0
2018-04-26,8,1388.0,25.0,0
2018-04-26,9,1524.0,26.4,0
2018-04-26,10,1652.6,27.5,0
2018-04-26,11,1621.9,29.0,0
2018-04-26,12,1709.4,29.7,0
2018-04-26,13,1695.3,30.6,0
2018-04-26,14,1698.1,30.8,0
2018-04-26,15,1701.6,30.4,0
2018-04-26,16,1807.3,30.0,0
2018-04-26,17,1819.9,29.2,0
2018-04-26,18,1847.0,28.1,0
2018-04-26,19,1815.1,27.5,0
2018-04-26,20,2127.96,27.1,0
2018-04-26,21,2106.26,26.9,0
2018-04-26,22,2155.6,26.8,0
2018-04-26,23,2006.6,26.5,0
2018-04-26,24,1989.0,26.3,0
2018-04-27,1,1927.5,25.9,0
2018-04-27,2,1843.3,25.6,0
2018-04-27,3,1813.7,25.1,0
2018-04-27,4,1733.3,24.9,0
2018-04-27,5,1712.4,24.6,0
2018-04-27,6,1793.2,24.5,0
2018-04-27,7,1675.1,24.5,0
2018-04-27,8,1609.3,25.5,0
2018-04-27,9,1672.5,27.3,0
2018-04-27,10,1615.0,29.2,0
2018-04-27,11,1858.2,30.8,0
2018-04-27,12,1785.3,31.6,0
2018-04-27,13,1714.3,31.5,0
2018-04-27,14,1705.5,30.4,0
2018-04-27,15,1779.2,31.5,0
2018-04-27,16,1800.6,30.4,0
2018-04-27,17,1812.9,29.9,0
2018-04-27,18,1788.5,29.0,0
2018-04-27,19,1721.3,28.0,0
2018-04-27,20,2069.56,27.5,0
2018-04-27,21,2111.23,27.4,0
2018-04-27,22,2105.9,27.2,0
2018-04-27,23,2100.2,27.0,0
2018-04-27,24,2005.2,26.8,0
2018-04-28,1,1971.7,26.6,0
2018-04-28,2,1880.3,26.7,0
2018-04-28,3,1830.0,26.4,0
2018-04-28,4,1747.8,25.9,0
2018-04-28,5,1690.3,25.6,0
2018-04-28,6,1712.4,25.4,0
2018-04-28,7,1584.8,25.4,0
2018-04-28,8,1543.1,26.5,0
2018-04-28,9,1541.9,28.2,0
2018-04-28,10,1523.3,30.2,0
2018-04-28,11,1542.0,31.9,0
2018-04-28,12,1631.5,33.0,0
2018-04-28,13,1607.8,30.8,0
2018-04-28,14,1615.3,30.6,0
2018-04-28,15,1597.3,31.1,0
2018-04-28,16,1641.7,30.8,0
2018-04-28,17,1650.6,29.7,0
2018-04-28,18,1671.8,29.0,0
2018-04-28,19,1396.7,28.0,0
2018-04-28,20,1778.99,27.8,0
2018-04-28,21,1732.02,27.5,0
2018-04-28,22,1765.9,27.5,0
2018-04-28,23,1741.7,27.4,0
2018-04-28,24,1811.9,25.8,0
2018-04-29,1,1786.2,27.0,0
2018-04-29,2,1827.3,26.8,0
2018-04-29,3,1754.9,26.5,0
2018-04-29,4,1777.9,26.2,0
2018-04-29,5,1692.7,26.0,0
2018-04-29,6,1766.2,25.5,0
2018-04-29,7,1581.3,25.2,0
2018-04-29,8,1641.9,25.9,0
2018-04-29,9,1548.5,27.5,0
2018-04-29,10,1476.2,28.5,0
2018-04-29,11,1439.2,29.2,0
2018-04-29,12,1488.0,29.2,0
2018-04-29,13,1456.0,30.1,0
2018-04-29,14,1587.1,30.1,0
2018-04-29,15,1538.9,30.3,0
2018-04-29,16,1392.6,29.4,0
2018-04-29,17,1534.7,29.2,0
2018-04-29,18,1622.1,28.1,0
2018-04-29,19,1470.99,27.4,0
2018-04-29,20,1903.1,27.1,0
2018-04-29,21,1868.15,27.0,0
2018-04-29,22,1878.8,26.9,0
2018-04-29,23,1877.7,26.9,0
2018-04-29,24,1773.2,26.9,0
2018-04-30,1,1654.1,26.0,0
2018-04-30,2,1618.1,25.6,0
2018-04-30,3,1572.5,25.2,0
2018-04-30,4,1526.2,25.0,0
2018-04-30,5,1588.5,24.9,0
2018-04-30,6,1608.6,24.7,0
2018-04-30,7,1542.1,24.6,0
2018-04-30,8,1414.4,25.5,0
2018-04-30,9,1497.7,27.1,0
2018-04-30,10,1550.8,28.3,0
2018-04-30,11,1509.1,28.9,0
2018-04-30,12,1629.9,29.6,0
2018-04-30,13,1672.1,29.2,0
2018-04-30,14,1685.6,29.1,0
2018-04-30,15,1731.4,29.0,0
2018-04-30,16,1748.2,28.8,0
2018-04-30,17,1722.1,28.5,0
2018-04-30,18,1695.3,28.0,0
2018-04-30,19,1581.3,27.1,0
2018-04-30,20,1666.31,26.9,0
2018-04-30,21,1787.3,26.8,0
2018-04-30,22,1944.1,26.5,0
2018-04-30,23,2030.1,26.4,0
2018-04-30,24,2008.4,26.0,0
2018-05-01,1,1820.7,26.0,1
2018-05-01,2,1749.62,26.0,1
2018-05-01,3,1730.18,25.6,1
2018-05-01,4,1696.71,25.5,1
2018-05-01,5,1676.13,25.1,1
2018-05-01,6,1646.78,24.9,1
2018-05-01,7,1454.34,24.7,1
2018-05-01,8,1428.57,25.9,1
2018-05-01,9,1597.37,27.8,1
2018-05-01,10,1485.64,29.5,1
2018-05-01,11,1488.4,30.6,1
2018-05-01,12,1562.82,30.8,1
2018-05-01,13,1564.52,30.5,1
2018-05-01,14,1580.52,30.9,1
2018-05-01,15,1604.39,29.6,1
2018-05-01,16,1594.74,29.6,1
2018-05-01,17,1591.24,29.0,1
2018-05-01,18,1571.84,28.5,1
2018-05-01,19,1549.48,27.8,1
2018-05-01,20,1916.89,27.5,1
2018-05-01,21,1953.19,27.0,1
2018-05-01,22,2010.65,26.6,1
2018-05-01,23,1946.0,26.6,1
2018-05-01,24,1832.56,26.1,1
2018-05-02,1,1738.62,26.3,0
2018-05-02,2,1656.82,26.0,0
2018-05-02,3,1732.42,25.9,0
2018-05-02,4,1684.85,25.8,0
2018-05-02,5,1618.38,25.5,0
2018-05-02,6,1599.07,25.4,0
2018-05-02,7,1591.09,25.2,0
2018-05-02,8,1552.34,26.2,0
2018-05-02,9,1635.28,27.6,0
2018-05-02,10,1711.85,29.1,0
2018-05-02,11,1684.65,29.6,0
2018-05-02,12,1787.52,29.4,0
2018-05-02,13,1782.35,29.9,0
2018-05-02,14,1796.96,29.7,0
2018-05-02,15,1789.3,29.5,0
2018-05-02,16,1761.2,29.1,0
2018-05-02,17,1835.87,28.1,0
2018-05-02,18,1755.07,27.1,0
2018-05-02,19,1726.74,26.5,0
2018-05-02,20,2021.1,26.2,0
2018-05-02,21,2154.1,25.8,0
2018-05-02,22,2147.71,25.2,0
2018-05-02,23,2095.05,25.5,0
2018-05-02,24,1941.53,25.6,0
2018-05-03,1,1832.61,25.6,0
2018-05-03,2,1794.6,25.7,0
2018-05-03,3,1757.0,25.5,0
2018-05-03,4,1729.3,25.5,0
2018-05-03,5,1659.8,25.5,0
2018-05-03,6,1772.6,25.2,0
2018-05-03,7,1606.5,25.0,0
2018-05-03,8,1506.4,25.8,0
2018-05-03,9,1576.5,27.0,0
2018-05-03,10,1295.4,28.6,0
2018-05-03,11,1423.9,29.8,0
2018-05-03,12,1428.2,29.6,0
2018-05-03,13,1371.6,28.9,0
2018-05-03,14,1435.1,29.5,0
2018-05-03,15,1482.3,29.8,0
2018-05-03,16,1470.6,29.0,0
2018-05-03,17,1514.8,28.5,0
2018-05-03,18,1521.2,27.8,0
2018-05-03,19,1552.1,27.4,0
2018-05-03,20,1852.04,27.3,0
2018-05-03,21,1990.12,27.1,0
2018-05-03,22,2015.8,26.1,0
2018-05-03,23,2002.2,25.1,0
2018-05-03,24,1880.6,25.4,0
2018-05-04,1,1792.5,25.9,0
2018-05-04,2,1774.7,25.8,0
2018-05-04,3,1727.1,25.6,0
2018-05-04,4,1694.9,25.5,0
2018-05-04,5,1688.0,25.4,0
2018-05-04,6,1680.7,25.2,0
2018-05-04,7,1650.0,24.9,0
2018-05-04,8,1559.4,25.2,0
2018-05-04,9,1568.9,26.6,0
2018-05-04,10,1560.9,28.2,0
2018-05-04,11,1637.0,30.2,0
2018-05-04,12,1571.0,30.8,0
2018-05-04,13,1652.5,29.7,0
2018-05-04,14,1412.2,29.7,0
2018-05-04,15,1496.0,29.6,0
2018-05-04,16,1624.4,29.1,0
2018-05-04,17,1600.2,28.8,0
2018-05-04,18,1586.8,28.5,0
2018-05-04,19,1596.9,27.6,0
2018-05-04,20,1939.03,27.2,0
2018-05-04,21,2062.7,27.0,0
2018-05-04,22,2099.9,26.9,0
2018-05-04,23,2060.5,26.9,0
2018-05-04,24,1966.4,26.8,0
2018-05-05,1,1874.0,26.5,0
2018-05-05,2,1610.2,26.4,0
2018-05-05,3,1673.4,26.3,0
2018-05-05,4,1815.9,26.0,0
2018-05-05,5,1764.3,25.8,0
2018-05-05,6,1743.3,25.5,0
2018-05-05,7,1533.5,25.3,0
2018-05-05,8,1555.9,26.2,0
2018-05-05,9,1521.3,27.8,0
2018-05-05,10,1456.9,29.5,0
2018-05-05,11,1452.0,30.7,0
2018-05-05,12,1488.3,31.0,0
2018-05-05,13,1536.0,30.1,0
2018-05-05,14,1543.0,30.5,0
2018-05-05,15,1517.8,29.1,0
2018-05-05,16,1533.2,29.5,0
2018-05-05,17,1537.2,28.9,0
2018-05-05,18,1494.3,28.4,0
2018-05-05,19,1583.9,28.0,0
2018-05-05,20,2008.28,27.6,0
2018-05-05,21,2024.08,27.5,0
2018-05-05,22,2024.6,27.3,0
2018-05-05,23,1919.8,26.3,0
2018-05-05,24,1667.1,26.2,0
2018-05-06,1,1592.7,25.8,0
2018-05-06,2,1555.8,25.9,0
2018-05-06,3,1574.1,25.8,0
2018-05-06,4,1407.8,25.7,0
2018-05-06,5,1520.8,25.3,0
2018-05-06,6,1402.0,24.9,0
2018-05-06,7,1397.4,25.3,0
2018-05-06,8,1397.8,25.5,0
2018-05-06,9,1383.2,26.1,0
2018-05-06,10,1314.3,26.5,0
2018-05-06,11,1258.6,26.8,0
2018-05-06,12,1251.3,27.5,0
2018-05-06,13,1270.2,28.3,0
2018-05-06,14,1300.6,28.5,0
2018-05-06,15,1365.0,28.2,0
2018-05-06,16,1348.1,28.3,0
2018-05-06,17,1399.5,27.4,0
2018-05-06,18,1447.5,27.8,0
2018-05-06,19,1562.6,27.1,0
2018-05-06,20,1841.28,26.6,0
2018-05-06,21,1995.62,26.1,0
2018-05-06,22,2005.8,25.7,0
2018-05-06,23,1931.7,25.5,0
2018-05-06,24,1810.3,25.3,0
2018-05-07,1,1722.3,25.1,0
2018-05-07,2,1736.7,25.2,0
2018-05-07,3,1707.1,24.9,0
2018-05-07,4,1681.1,24.7,0
2018-05-07,5,1653.8,24.5,0
2018-05-07,6,1667.4,24.5,0
2018-05-07,7,1619.3,24.2,0
2018-05-07,8,1552.0,25.2,0
2018-05-07,9,1633.4,26.9,0
2018-05-07,10,1741.6,28.0,0
2018-05-07,11,1779.5,29.4,0
2018-05-07,12,1772.5,29.5,0
2018-05-07,13,1813.1,30.0,0
2018-05-07,14,1843.3,29.8,0
2018-05-07,15,1843.4,29.5,0
2018-05-07,16,1838.4,29.4,0
2018-05-07,17,1791.0,29.1,0
2018-05-07,18,1816.5,28.5,0
2018-05-07,19,1766.1,27.9,0
2018-05-07,20,2054.31,27.4,0
2018-05-07,21,2124.49,27.1,0
2018-05-07,22,2231.2,26.9,0
2018-05-07,23,2179.9,26.5,0
2018-05-07,24,2029.2,26.2,0
2018-05-08,1,2006.8,26.0,0
2018-05-08,2,1866.4,25.9,0
2018-05-08,3,1766.17,25.5,0
2018-05-08,4,1747.46,25.2,0
2018-05-08,5,1695.56,25.0,0
2018-05-08,6,1764.44,25.0,0
2018-05-08,7,1628.07,24.8,0
2018-05-08,8,1539.07,25.9,0
2018-05-08,9,1554.38,27.7,0
2018-05-08,10,1590.09,29.4,0
2018-05-08,11,1657.08,30.3,0
2018-05-08,12,1659.08,30.8,0
2018-05-08,13,1647.4,30.8,0
2018-05-08,14,1674.97,28.9,0
2018-05-08,15,1310.05,28.6,0
2018-05-08,16,1341.57,27.2,0
2018-05-08,17,1413.18,26.5,0
2018-05-08,18,1512.9,26.3,0
2018-05-08,19,1611.84,26.0,0
2018-05-08,20,1843.33,26.0,0
2018-05-08,21,1919.63,26.1,0
2018-05-08,22,1889.86,26.2,0
2018-05-08,23,1828.92,26.0,0
2018-05-08,24,1763.63,25.5,0
2018-05-09,1,1680.8,26.2,0
2018-05-09,2,1681.8,25.6,0
2018-05-09,3,1653.6,25.2,0
2018-05-09,4,1539.7,25.1,0
2018-05-09,5,1563.4,25.0,0
2018-05-09,6,1592.8,25.0,0
2018-05-09,7,1601.9,24.8,0
2018-05-09,8,1498.7,25.9,0
2018-05-09,9,1543.8,27.6,0
2018-05-09,10,1513.3,29.0,0
2018-05-09,11,1597.7,30.4,0
2018-05-09,12,1643.0,30.4,0
2018-05-09,13,1541.9,29.5,0
2018-05-09,14,1527.9,30.0,0
2018-05-09,15,1547.6,30.1,0
2018-05-09,16,1657.4,29.6,0
2018-05-09,17,1684.5,28.5,0
2018-05-09,18,1758.3,27.7,0
2018-05-09,19,1707.0,26.9,0
2018-05-09,20,2061.8,26.4,0
2018-05-09,21,2130.42,25.5,0
2018-05-09,22,2088.8,25.7,0
2018-05-09,23,2212.8,25.9,0
2018-05-09,24,1999.7,26.0,0
2018-05-10,1,1933.2,26.4,0
2018-05-10,2,1817.11,26.5,0
2018-05-10,3,1713.17,26.2,0
2018-05-10,4,1751.94,26.0,0
2018-05-10,5,1783.78,25.8,0
2018-05-10,6,1781.18,25.5,0
2018-05-10,7,1614.49,25.3,0
2018-05-10,8,1660.85,26.2,0
2018-05-10,9,1612.51,27.9,0
2018-05-10,10,1659.53,28.7,0
2018-05-10,11,1710.55,28.7,0
2018-05-10,12,1719.05,29.3,0
2018-05-10,13,1741.8,30.3,0
2018-05-10,14,1713.57,30.5,0
2018-05-10,15,1760.6,30.0,0
2018-05-10,16,1745.07,29.1,0
2018-05-10,17,1700.75,28.9,0
2018-05-10,18,1708.0,27.8,0
2018-05-10,19,1689.99,27.6,0
2018-05-10,20,1942.25,27.2,0
2018-05-10,21,2054.87,26.8,0
2018-05-10,22,2033.31,26.2,0
2018-05-10,23,1840.41,25.6,0
2018-05-10,24,1657.96,25.2,0
2018-05-11,1,1650.82,24.9,0
2018-05-11,2,1525.7,24.8,0
2018-05-11,3,1458.4,24.5,0
2018-05-11,4,1416.0,24.6,0
2018-05-11,5,1391.1,24.3,0
2018-05-11,6,1362.4,24.2,0
2018-05-11,7,1354.0,24.1,0
2018-05-11,8,1342.1,24.0,0
2018-05-11,9,1385.1,24.0,0
2018-05-11,10,1326.3,24.1,0
2018-05-11,11,1366.0,24.5,0
2018-05-11,12,1372.7,25.3,0
2018-05-11,13,1413.6,25.1,0
2018-05-11,14,1590.2,24.8,0
2018-05-11,15,1424.4,25.2,0
2018-05-11,16,1364.0,25.2,0
2018-05-11,17,1428.8,25.6,0
2018-05-11,18,1585.4,25.7,0
2018-05-11,19,1580.4,25.1,0
2018-05-11,20,1837.13,24.6,0
2018-05-11,21,1844.3,24.5,0
2018-05-11,22,1861.6,24.2,0
2018-05-11,23,1852.7,23.9,0
2018-05-11,24,1689.2,23.6,0
2018-05-12,1,1659.8,24.2,0
2018-05-12,2,1652.9,24.3,0
2018-05-12,3,1607.0,24.1,0
2018-05-12,4,1634.4,24.0,0
2018-05-12,5,1543.6,23.9,0
2018-05-12,6,1662.5,23.6,0
2018-05-12,7,1584.8,23.6,0
2018-05-12,8,1543.1,24.2,0
2018-05-12,9,1541.9,25.2,0
2018-05-12,10,1523.3,26.0,0
2018-05-12,11,1542.0,26.6,0
2018-05-12,12,1631.5,27.0,0
2018-05-12,13,1607.8,28.4,0
2018-05-12,14,1615.3,28.2,0
2018-05-12,15,1597.3,28.1,0
2018-05-12,16,1641.7,27.9,0
2018-05-12,17,1650.6,27.0,0
2018-05-12,18,1671.8,25.9,0
2018-05-12,19,1396.7,25.0,0
2018-05-12,20,1778.99,25.0,0
2018-05-12,21,1732.02,24.8,0
2018-05-12,22,1765.9,24.6,0
2018-05-12,23,1741.7,24.8,0
2018-05-12,24,1811.9,24.4,0
2018-05-13,1,1786.2,24.6,0
2018-05-13,2,1644.6,24.4,0
2018-05-13,3,1617.2,24.0,0
2018-05-13,4,1559.3,23.9,0
2018-05-13,5,1463.5,23.8,0
2018-05-13,6,1447.0,23.8,0
2018-05-13,7,1352.5,23.9,0
2018-05-13,8,1377.0,24.2,0
2018-05-13,9,1346.3,24.8,0
2018-05-13,10,1303.7,26.0,0
2018-05-13,11,1243.5,27.3,0
2018-05-13,12,1267.8,27.2,0
2018-05-13,13,1289.0,27.6,0
2018-05-13,14,1197.1,28.2,0
2018-05-13,15,1262.3,29.0,0
2018-05-13,16,1347.6,29.7,0
2018-05-13,17,1316.9,29.8,0
2018-05-13,18,1432.4,28.4,0
2018-05-13,19,1432.1,26.7,0
2018-05-13,20,1761.66,26.2,0
2018-05-13,21,1852.41,26.4,0
2018-05-13,22,1915.5,25.6,0
2018-05-13,23,1913.9,25.2,0
2018-05-13,24,1744.8,25.0,0
2018-05-14,1,1700.8,25.5,0
2018-05-14,2,1616.0,25.3,0
2018-05-14,3,1606.7,25.0,0
2018-05-14,4,1584.5,24.7,0
2018-05-14,5,1571.2,24.5,0
2018-05-14,6,1591.6,24.1,0
2018-05-14,7,1544.9,24.0,0
2018-05-14,8,1407.9,24.8,0
2018-05-14,9,1477.3,26.2,0
2018-05-14,10,1517.1,27.9,0
2018-05-14,11,1556.6,28.6,0
2018-05-14,12,1616.5,29.0,0
2018-05-14,13,1649.2,28.5,0
2018-05-14,14,1669.2,28.6,0
2018-05-14,15,1632.6,28.5,0
2018-05-14,16,1623.2,28.3,0
2018-05-14,17,1641.2,28.0,0
2018-05-14,18,1684.1,27.5,0
2018-05-14,19,1625.4,26.9,0
2018-05-14,20,1953.01,26.5,0
2018-05-14,21,2015.5,26.4,0
2018-05-14,22,2114.9,26.5,0
2018-05-14,23,2031.3,26.3,0
2018-05-14,24,1951.2,26.1,0
2018-05-15,1,1871.8,26.2,0
2018-05-15,2,1741.3,26.1,0
2018-05-15,3,1725.8,25.9,0
2018-05-15,4,1714.9,25.4,0
2018-05-15,5,1621.8,25.1,0
2018-05-15,6,1604.3,24.9,0
2018-05-15,7,1662.4,24.8,0
2018-05-15,8,1482.1,25.5,0
2018-05-15,9,1547.2,26.2,0
2018-05-15,10,1586.5,26.8,0
2018-05-15,11,1436.1,27.0,0
2018-05-15,12,1605.8,27.5,0
2018-05-15,13,1629.7,28.0,0
2018-05-15,14,1663.9,28.2,0
2018-05-15,15,1666.8,28.1,0
2018-05-15,16,1788.7,28.3,0
2018-05-15,17,1796.9,28.1,0
2018-05-15,18,1769.2,27.1,0
2018-05-15,19,1771.8,26.6,0
2018-05-15,20,2121.69,26.4,0
2018-05-15,21,2169.99,26.3,0
2018-05-15,22,2191.3,26.1,0
2018-05-15,23,2137.0,26.0,0
2018-05-15,24,2027.1,25.6,0
2018-05-16,1,1923.5,25.9,0
2018-05-16,2,1837.4,25.7,0
2018-05-16,3,1789.7,25.4,0
2018-05-16,4,1731.5,25.2,0
2018-05-16,5,1777.6,25.0,0
2018-05-16,6,1790.9,24.7,0
2018-05-16,7,1574.0,24.7,0
2018-05-16,8,1519.2,25.5,0
2018-05-16,9,1584.4,26.8,0
2018-05-16,10,1640.3,28.0,0
2018-05-16,11,1664.5,27.4,0
2018-05-16,12,1639.2,27.2,0
2018-05-16,13,1691.7,28.0,0
2018-05-16,14,1529.2,28.1,0
2018-05-16,15,1637.4,27.2,0
2018-05-16,16,1583.2,27.2,0
2018-05-16,17,1743.9,27.4,0
2018-05-16,18,1752.9,26.7,0
2018-05-16,19,1794.3,26.2,0
2018-05-16,20,2017.54,26.0,0
2018-05-16,21,2093.66,25.9,0
2018-05-16,22,2072.5,25.8,0
2018-05-16,23,2080.2,25.5,0
2018-05-16,24,1932.5,24.8,0
2018-05-17,1,1871.4,25.8,0
2018-05-17,2,1824.8,25.6,0
2018-05-17,3,1833.42,25.2,0
2018-05-17,4,1759.53,24.9,0
2018-05-17,5,1765.55,24.8,0
2018-05-17,6,1780.15,24.0,0
2018-05-17,7,1757.04,23.5,0
2018-05-17,8,1637.18,24.0,0
2018-05-17,9,1561.95,25.6,0
2018-05-17,10,1542.88,26.9,0
2018-05-17,11,1564.45,27.9,0
2018-05-17,12,1578.12,28.5,0
2018-05-17,13,1411.3,27.0,0
2018-05-17,14,1312.38,27.4,0
2018-05-17,15,1367.36,26.4,0
2018-05-17,16,1319.83,25.3,0
2018-05-17,17,1269.47,25.1,0
2018-05-17,18,1396.27,25.0,0
2018-05-17,19,1474.55,24.9,0
2018-05-17,20,1759.22,24.6,0
2018-05-17,21,1855.29,24.5,0
2018-05-17,22,1807.07,24.2,0
2018-05-17,23,1747.6,23.9,0
2018-05-17,24,1640.51,23.9,0
2018-05-18,1,1609.12,24.2,0
2018-05-18,2,1532.44,24.0,0
2018-05-18,3,1522.64,24.0,0
2018-05-18,4,1511.24,23.8,0
2018-05-18,5,1525.64,23.8,0
2018-05-18,6,1539.75,23.5,0
2018-05-18,7,1539.4,23.5,0
2018-05-18,8,1452.4,24.2,0
2018-05-18,9,1410.46,25.9,0
2018-05-18,10,1528.94,27.2,0
2018-05-18,11,1573.84,27.9,0
2018-05-18,12,1534.89,28.1,0
2018-05-18,13,1566.12,28.6,0
2018-05-18,14,1603.86,28.5,0
2018-05-18,15,1592.72,29.0,0
2018-05-18,16,1618.22,27.8,0
2018-05-18,17,1626.62,28.0,0
2018-05-18,18,1679.53,27.4,0
2018-05-18,19,1675.03,26.2,0
2018-05-18,20,1839.53,26.1,0
2018-05-18,21,1932.2,26.1,0
2018-05-18,22,1971.83,26.0,0
2018-05-18,23,1963.96,25.9,0
2018-05-18,24,1908.5,25.5,0
2018-05-19,1,1823.7,25.5,0
2018-05-19,2,1801.2,25.0,0
2018-05-19,3,1759.3,24.7,0
2018-05-19,4,1748.2,24.5,0
2018-05-19,5,1749.4,24.5,0
2018-05-19,6,1715.9,24.4,0
2018-05-19,7,1470.7,24.3,0
2018-05-19,8,1522.7,25.2,0
2018-05-19,9,1496.6,26.0,0
2018-05-19,10,1500.4,27.2,0
2018-05-19,11,1612.4,28.0,0
2018-05-19,12,1573.1,28.4,0
2018-05-19,13,1579.7,29.0,0
2018-05-19,14,1628.6,29.2,0
2018-05-19,15,1649.7,27.9,0
2018-05-19,16,1698.7,28.5,0
2018-05-19,17,1540.7,27.9,0
2018-05-19,18,1673.3,27.3,0
2018-05-19,19,1721.9,26.9,0
2018-05-19,20,1848.33,26.4,0
2018-05-19,21,2021.96,26.2,0
2018-05-19,22,2210.6,26.1,0
2018-05-19,23,2094.2,25.9,0
2018-05-19,24,1997.6,25.8,0
2018-05-20,1,1966.2,25.0,0
2018-05-20,2,1762.5,24.9,0
2018-05-20,3,1652.8,24.6,0
2018-05-20,4,1684.7,24.4,0
2018-05-20,5,1669.9,24.1,0
2018-05-20,6,1635.7,24.1,0
2018-05-20,7,1596.1,24.0,0
2018-05-20,8,1531.4,24.9,0
2018-05-20,9,1471.0,26.3,0
2018-05-20,10,1354.8,28.1,0
2018-05-20,11,1355.6,29.5,0
2018-05-20,12,1346.5,29.6,0
2018-05-20,13,1296.1,29.4,0
2018-05-20,14,1435.4,29.1,0
2018-05-20,15,1457.8,29.0,0
2018-05-20,16,1574.5,28.4,0
2018-05-20,17,1587.5,27.6,0
2018-05-20,18,1565.2,27.2,0
2018-05-20,19,1617.6,26.7,0
2018-05-20,20,1866.53,26.5,0
2018-05-20,21,1995.35,26.4,0
2018-05-20,22,2028.3,26.2,0
2018-05-20,23,2004.3,25.2,0
2018-05-20,24,1836.7,25.3,0
2018-05-21,1,1809.2,25.7,0
2018-05-21,2,1727.7,25.5,0
2018-05-21,3,1662.9,25.3,0
2018-05-21,4,1670.3,25.0,0
2018-05-21,5,1629.5,24.8,0
2018-05-21,6,1609.1,24.7,0
2018-05-21,7,1518.8,24.5,0
2018-05-21,8,1550.7,25.3,0
2018-05-21,9,1517.8,26.6,0
2018-05-21,10,1524.8,27.8,0
2018-05-21,11,1549.7,29.2,0
2018-05-21,12,1659.5,29.1,0
2018-05-21,13,1607.5,28.7,0
2018-05-21,14,1662.4,28.4,0
2018-05-21,15,1686.4,28.5,0
2018-05-21,16,1709.5,28.2,0
2018-05-21,17,1701.2,28.1,0
2018-05-21,18,1597.2,27.6,0
2018-05-21,19,1729.7,27.0,0
2018-05-21,20,1986.21,26.6,0
2018-05-21,21,2058.08,26.5,0
2018-05-21,22,2111.8,26.4,0
2018-05-21,23,2079.4,26.2,0
2018-05-21,24,1945.0,26.1,0
2018-05-22,1,1911.4,25.9,0
2018-05-22,2,1872.8,25.9,0
2018-05-22,3,1782.3,25.6,0
2018-05-22,4,1685.7,25.1,0
2018-05-22,5,1661.0,24.9,0
2018-05-22,6,1710.2,24.7,0
2018-05-22,7,1612.0,24.8,0
2018-05-22,8,1594.4,25.6,0
2018-05-22,9,1577.3,26.6,0
2018-05-22,10,1644.4,27.9,0
2018-05-22,11,1652.6,28.2,0
2018-05-22,12,1697.6,28.0,0
2018-05-22,13,1638.8,28.5,0
2018-05-22,14,1504.5,28.7,0
2018-05-22,15,1579.1,27.5,0
2018-05-22,16,1464.8,27.0,0
2018-05-22,17,1546.7,27.1,0
2018-05-22,18,1578.6,26.5,0
2018-05-22,19,1645.8,26.0,0
2018-05-22,20,1988.43,26.0,0
2018-05-22,21,2078.89,26.0,0
2018-05-22,22,2114.9,26.0,0
2018-05-22,23,2124.6,26.0,0
2018-05-22,24,1944.4,25.9,0
2018-05-23,1,1874.5,25.5,0
2018-05-23,2,1814.8,25.6,0
2018-05-23,3,1716.3,25.4,0
2018-05-23,4,1773.4,25.3,0
2018-05-23,5,1772.7,25.4,0
2018-05-23,6,1773.2,25.2,0
2018-05-23,7,1649.4,25.1,0
2018-05-23,8,1530.5,25.9,0
2018-05-23,9,1575.5,26.8,0
2018-05-23,10,1611.7,27.9,0
2018-05-23,11,1707.4,28.7,0
2018-05-23,12,1670.8,28.6,0
2018-05-23,13,1711.5,28.6,0
2018-05-23,14,1740.6,28.6,0
2018-05-23,15,1719.4,27.7,0
2018-05-23,16,1775.9,28.1,0
2018-05-23,17,1740.8,27.6,0
2018-05-23,18,1772.1,26.9,0
2018-05-23,19,1755.0,26.3,0
2018-05-23,20,2037.93,26.1,0
2018-05-23,21,2096.75,26.0,0
2018-05-23,22,2160.2,26.0,0
2018-05-23,23,2174.5,26.0,0
2018-05-23,24,2007.3,25.8,0
2018-05-24,1,1895.0,25.6,0
2018-05-24,2,1813.2,25.5,0
2018-05-24,3,1809.9,25.2,0
2018-05-24,4,1792.1,24.9,0
2018-05-24,5,1751.0,24.9,0
2018-05-24,6,1733.4,24.7,0
2018-05-24,7,1600.0,24.5,0
2018-05-24,8,1588.7,25.2,0
2018-05-24,9,1618.2,26.2,0
2018-05-24,10,1657.7,26.6,0
2018-05-24,11,1668.8,27.5,0
2018-05-24,12,1661.8,28.3,0
2018-05-24,13,1676.3,29.0,0
2018-05-24,14,1729.0,29.0,0
2018-05-24,15,1736.3,28.4,0
2018-05-24,16,1770.9,28.0,0
2018-05-24,17,1822.6,27.9,0
2018-05-24,18,1826.3,27.5,0
2018-05-24,19,1739.7,26.9,0
2018-05-24,20,2068.84,26.5,0
2018-05-24,21,2129.94,26.2,0
2018-05-24,22,2251.0,26.2,0
2018-05-24,23,2215.5,26.1,0
2018-05-24,24,2079.6,26.0,0
2018-05-25,1,1932.7,25.7,1
2018-05-25,2,1869.11,25.7,1
2018-05-25,3,1647.71,25.4,1
2018-05-25,4,1511.18,25.1,1
2018-05-25,5,1551.48,24.9,1
2018-05-25,6,1702.44,24.8,1
2018-05-25,7,1529.0,24.6,1
2018-05-25,8,1423.75,25.2,1
2018-05-25,9,1499.42,26.6,1
2018-05-25,10,1557.31,28.0,1
2018-05-25,11,1591.7,28.7,1
2018-05-25,12,1613.26,28.7,1
2018-05-25,13,1614.85,27.8,1
2018-05-25,14,1570.82,27.1,1
2018-05-25,15,1543.01,27.4,1
2018-05-25,16,1562.4,27.2,1
2018-05-25,17,1528.09,27.0,1
2018-05-25,18,1447.62,26.1,1
2018-05-25,19,1480.86,26.1,1
2018-05-25,20,1778.94,25.8,1
2018-05-25,21,1787.62,25.8,1
2018-05-25,22,1874.86,25.0,1
2018-05-25,23,1701.09,25.1,1
2018-05-25,24,1737.41,24.9,1
2018-05-26,1,1698.19,24.3,0
2018-05-26,2,1609.2,24.1,0
2018-05-26,3,1547.4,24.0,0
2018-05-26,4,1537.0,23.8,0
2018-05-26,5,1512.9,23.6,0
2018-05-26,6,1508.0,23.5,0
2018-05-26,7,1404.0,23.5,0
2018-05-26,8,1368.8,24.4,0
2018-05-26,9,1362.1,25.9,0
2018-05-26,10,1350.7,27.1,0
2018-05-26,11,1398.0,28.0,0
2018-05-26,12,1388.8,27.4,0
2018-05-26,13,1410.1,27.9,0
2018-05-26,14,1431.4,26.6,0
2018-05-26,15,1477.0,26.7,0
2018-05-26,16,1496.9,27.1,0
2018-05-26,17,1469.0,26.8,0
2018-05-26,18,1567.7,26.3,0
2018-05-26,19,1598.8,26.0,0
2018-05-26,20,1885.17,25.9,0
2018-05-26,21,2005.37,25.8,0
2018-05-26,22,2015.3,25.5,0
2018-05-26,23,2017.5,25.2,0
2018-05-26,24,1869.4,24.8,0
2018-05-27,1,1773.4,24.8,0
2018-05-27,2,1735.4,24.3,0
2018-05-27,3,1670.7,24.5,0
2018-05-27,4,1636.6,24.6,0
2018-05-27,5,1581.3,24.3,0
2018-05-27,6,1613.4,23.9,0
2018-05-27,7,1548.6,23.9,0
2018-05-27,8,1538.3,24.5,0
2018-05-27,9,1427.1,25.0,0
2018-05-27,10,1371.7,25.8,0
2018-05-27,11,1356.1,26.4,0
2018-05-27,12,1352.2,26.4,0
2018-05-27,13,1359.8,25.8,0
2018-05-27,14,1361.9,25.5,0
2018-05-27,15,1359.6,25.8,0
2018-05-27,16,1420.0,26.0,0
2018-05-27,17,1351.9,26.3,0
2018-05-27,18,1508.6,26.1,0
2018-05-27,19,1543.0,25.5,0
2018-05-27,20,1845.98,25.2,0
2018-05-27,21,1895.52,24.9,0
2018-05-27,22,1895.6,24.5,0
2018-05-27,23,1821.2,24.1,0
2018-05-27,24,1755.9,24.1,0
2018-05-28,1,1712.3,24.4,0
2018-05-28,2,1601.6,24.3,0
2018-05-28,3,1604.2,24.1,0
2018-05-28,4,1607.4,23.9,0
2018-05-28,5,1580.6,23.7,0
2018-05-28,6,1570.8,23.6,0
2018-05-28,7,1591.8,23.6,0
2018-05-28,8,1310.9,24.6,0
2018-05-28,9,1472.6,25.8,0
2018-05-28,10,1523.8,27.4,0
2018-05-28,11,1589.4,28.8,0
2018-05-28,12,1593.7,29.2,0
2018-05-28,13,1637.3,29.1,0
2018-05-28,14,1624.5,29.2,0
2018-05-28,15,1612.0,28.9,0
2018-05-28,16,1536.6,28.0,0
2018-05-28,17,1702.6,27.9,0
2018-05-28,18,1733.9,27.2,0
2018-05-28,19,1720.2,26.5,0
2018-05-28,20,1975.75,26.2,0
2018-05-28,21,2072.24,25.9,0
2018-05-28,22,2126.5,25.8,0
2018-05-28,23,2072.2,25.6,0
2018-05-28,24,1884.1,25.5,0
2018-05-29,1,1836.9,25.6,0
2018-05-29,2,1672.3,25.5,0
2018-05-29,3,1756.3,25.2,0
2018-05-29,4,1769.3,25.0,0
2018-05-29,5,1756.6,24.9,0
2018-05-29,6,1744.8,24.6,0
2018-05-29,7,1674.8,24.6,0
2018-05-29,8,1565.8,25.3,0
2018-05-29,9,1502.3,26.2,0
2018-05-29,10,1584.9,27.5,0
2018-05-29,11,1622.0,28.1,0
2018-05-29,12,1653.5,28.0,0
2018-05-29,13,1693.3,28.6,0
2018-05-29,14,1681.0,28.0,0
2018-05-29,15,1710.5,28.4,0
2018-05-29,16,1730.5,27.8,0
2018-05-29,17,1811.7,27.1,0
2018-05-29,18,1699.7,26.5,0
2018-05-29,19,1695.1,26.1,0
2018-05-29,20,2029.19,25.6,0
2018-05-29,21,2112.42,25.5,0
2018-05-29,22,2113.9,25.2,0
2018-05-29,23,2042.8,25.4,0
2018-05-29,24,1894.4,25.1,0
2018-05-30,1,1857.9,24.6,0
2018-05-30,2,1871.8,24.9,0
2018-05-30,3,1751.9,24.6,0
2018-05-30,4,1757.0,24.5,0
2018-05-30,5,1775.3,24.4,0
2018-05-30,6,1804.2,24.4,0
2018-05-30,7,1725.3,24.3,0
2018-05-30,8,1604.6,24.9,0
2018-05-30,9,1607.1,25.7,0
2018-05-30,10,1615.4,26.1,0
2018-05-30,11,1653.7,26.3,0
2018-05-30,12,1624.3,26.9,0
2018-05-30,13,1627.8,27.8,0
2018-05-30,14,1686.8,28.0,0
2018-05-30,15,1781.4,27.8,0
2018-05-30,16,1762.4,27.6,0
2018-05-30,17,1749.9,26.8,0
2018-05-30,18,1751.1,26.3,0
2018-05-30,19,1735.0,25.9,0
2018-05-30,20,1976.0,25.6,0
2018-05-30,21,2103.0,25.6,0
2018-05-30,22,2116.7,25.6,0
2018-05-30,23,2067.2,25.5,0
2018-05-30,24,1901.0,25.4,0
2018-05-31,1,1851.6,24.9,0
2018-05-31,2,1777.2,25.0,0
2018-05-31,3,1744.6,24.4,0
2018-05-31,4,1694.5,24.6,0
2018-05-31,5,1694.7,24.0,0
2018-05-31,6,1724.9,23.9,0
2018-05-31,7,1598.8,23.9,0
2018-05-31,8,1527.7,24.7,0
2018-05-31,9,1564.3,25.8,0
2018-05-31,10,1518.0,26.9,0
2018-05-31,11,1648.3,27.6,0
2018-05-31,12,1542.6,28.0,0
2018-05-31,13,1618.6,28.0,0
2018-05-31,14,1577.0,28.0,0
2018-05-31,15,1618.3,28.4,0
2018-05-31,16,1648.8,27.7,0
2018-05-31,17,1691.7,27.5,0
2018-05-31,18,1731.3,26.8,0
2018-05-31,19,1742.7,26.4,0
2018-05-31,20,2017.54,26.0,0
2018-05-31,21,2108.72,25.8,0
2018-05-31,22,2116.01,25.5,0
2018-05-31,23,2058.81,25.5,0
2018-05-31,24,1972.61,25.2,0
2018-06-01,1,1913.79,25.5,0
2018-06-01,2,1749.62,25.4,0
2018-06-01,3,1730.18,25.0,0
2018-06-01,4,1696.71,24.8,0
2018-06-01,5,1676.13,24.7,0
2018-06-01,6,1646.78,24.5,0
2018-06-01,7,1454.34,24.2,0
2018-06-01,8,1428.57,25.0,0
2018-06-01,9,1597.37,26.4,0
2018-06-01,10,1485.64,27.5,0
2018-06-01,11,1488.4,28.4,0
2018-06-01,12,1562.82,28.4,0
2018-06-01,13,1564.52,28.3,0
2018-06-01,14,1580.52,28.4,0
2018-06-01,15,1604.39,28.0,0
2018-06-01,16,1594.74,27.9,0
2018-06-01,17,1591.24,27.5,0
2018-06-01,18,1571.84,27.0,0
2018-06-01,19,1549.48,26.6,0
2018-06-01,20,1916.89,26.3,0
2018-06-01,21,1953.19,26.2,0
2018-06-01,22,2010.65,26.0,0
2018-06-01,23,1946.0,25.9,0
2018-06-01,24,1832.56,25.6,0
2018-06-02,1,1738.62,25.5,0
2018-06-02,2,1656.82,25.6,0
2018-06-02,3,1732.42,25.4,0
2018-06-02,4,1684.85,25.1,0
2018-06-02,5,1618.38,24.9,0
2018-06-02,6,1599.07,24.6,0
2018-06-02,7,1591.09,24.4,0
2018-06-02,8,1552.34,25.1,0
2018-06-02,9,1635.28,26.4,0
2018-06-02,10,1711.85,27.6,0
2018-06-02,11,1684.65,28.1,0
2018-06-02,12,1787.52,27.0,0
2018-06-02,13,1782.35,27.1,0
2018-06-02,14,1796.96,28.1,0
2018-06-02,15,1789.3,28.0,0
2018-06-02,16,1761.2,28.3,0
2018-06-02,17,1835.87,27.5,0
2018-06-02,18,1755.07,26.9,0
2018-06-02,19,1726.74,26.6,0
2018-06-02,20,2021.1,26.4,0
2018-06-02,21,2154.1,26.4,0
2018-06-02,22,2147.71,26.3,0
2018-06-02,23,2095.05,25.9,0
2018-06-02,24,1941.53,25.8,0
2018-06-03,1,1832.61,25.5,0
2018-06-03,2,1794.6,25.2,0
2018-06-03,3,1757.0,24.6,0
2018-06-03,4,1729.3,24.3,0
2018-06-03,5,1659.8,24.2,0
2018-06-03,6,1772.6,24.2,0
2018-06-03,7,1606.5,24.1,0
2018-06-03,8,1506.4,25.1,0
2018-06-03,9,1576.5,26.2,0
2018-06-03,10,1295.4,26.6,0
2018-06-03,11,1423.9,27.5,0
2018-06-03,12,1428.2,28.5,0
2018-06-03,13,1371.6,27.5,0
2018-06-03,14,1435.1,28.1,0
2018-06-03,15,1482.3,27.9,0
2018-06-03,16,1470.6,28.0,0
2018-06-03,17,1514.8,27.0,0
2018-06-03,18,1521.2,27.1,0
2018-06-03,19,1552.1,26.7,0
2018-06-03,20,1852.04,26.4,0
2018-06-03,21,1990.12,26.4,0
2018-06-03,22,2015.8,26.1,0
2018-06-03,23,2002.2,25.9,0
2018-06-03,24,1880.6,25.6,0
2018-06-04,1,1792.5,25.2,0
2018-06-04,2,1774.7,25.1,0
2018-06-04,3,1727.1,24.9,0
2018-06-04,4,1694.9,24.8,0
2018-06-04,5,1688.0,24.5,0
2018-06-04,6,1680.7,24.5,0
2018-06-04,7,1650.0,24.3,0
2018-06-04,8,1559.4,24.8,0
2018-06-04,9,1568.9,25.6,0
2018-06-04,10,1560.9,26.7,0
2018-06-04,11,1637.0,27.6,0
2018-06-04,12,1571.0,27.9,0
2018-06-04,13,1652.5,28.1,0
2018-06-04,14,1412.2,28.6,0
2018-06-04,15,1496.0,28.3,0
2018-06-04,16,1624.4,28.7,0
2018-06-04,17,1600.2,27.9,0
2018-06-04,18,1586.8,27.4,0
2018-06-04,19,1596.9,27.0,0
2018-06-04,20,1939.03,26.6,0
2018-06-04,21,2062.7,26.4,0
2018-06-04,22,2099.9,26.1,0
2018-06-04,23,2060.5,26.0,0
2018-06-04,24,1966.4,25.9,0
2018-06-05,1,1874.0,26.0,0
2018-06-05,2,1610.2,26.0,0
2018-06-05,3,1673.4,25.6,0
2018-06-05,4,1815.9,25.1,0
2018-06-05,5,1764.3,24.8,0
2018-06-05,6,1743.3,24.5,0
2018-06-05,7,1533.5,24.5,0
2018-06-05,8,1555.9,25.1,0
2018-06-05,9,1521.3,26.5,0
2018-06-05,10,1456.9,27.6,0
2018-06-05,11,1452.0,28.7,0
2018-06-05,12,1488.3,29.0,0
2018-06-05,13,1536.0,29.1,0
2018-06-05,14,1543.0,29.4,0
2018-06-05,15,1517.8,29.1,0
2018-06-05,16,1533.2,28.7,0
2018-06-05,17,1537.2,28.5,0
2018-06-05,18,1494.3,28.0,0
2018-06-05,19,1583.9,27.3,0
2018-06-05,20,2008.28,27.0,0
2018-06-05,21,2024.08,26.8,0
2018-06-05,22,2024.6,26.5,0
2018-06-05,23,1919.8,26.2,0
2018-06-05,24,1667.1,25.8,0
2018-06-06,1,1592.7,25.6,0
2018-06-06,2,1555.8,25.6,0
2018-06-06,3,1574.1,25.2,0
2018-06-06,4,1407.8,24.9,0
2018-06-06,5,1520.8,24.7,0
2018-06-06,6,1402.0,24.5,0
2018-06-06,7,1397.4,24.3,0
2018-06-06,8,1397.8,25.4,0
2018-06-06,9,1383.2,26.9,0
2018-06-06,10,1314.3,28.5,0
2018-06-06,11,1258.6,29.5,0
2018-06-06,12,1251.3,30.0,0
2018-06-06,13,1270.2,29.4,0
2018-06-06,14,1300.6,29.0,0
2018-06-06,15,1365.0,29.1,0
2018-06-06,16,1348.1,29.4,0
2018-06-06,17,1399.5,28.5,0
2018-06-06,18,1447.5,28.0,0
2018-06-06,19,1562.6,27.0,0
2018-06-06,20,1841.28,26.7,0
2018-06-06,21,1995.62,26.2,0
2018-06-06,22,2005.8,26.1,0
2018-06-06,23,1931.7,26.1,0
2018-06-06,24,1810.3,26.0,0
2018-06-07,1,1722.3,25.2,0
2018-06-07,2,1736.7,24.6,0
2018-06-07,3,1707.1,24.4,0
2018-06-07,4,1681.1,24.5,0
2018-06-07,5,1653.8,24.5,0
2018-06-07,6,1667.4,24.6,0
2018-06-07,7,1619.3,24.8,0
2018-06-07,8,1552.0,25.0,0
2018-06-07,9,1633.4,25.8,0
2018-06-07,10,1741.6,27.0,0
2018-06-07,11,1779.5,27.8,0
2018-06-07,12,1772.5,28.8,0
2018-06-07,13,1813.1,28.7,0
2018-06-07,14,1843.3,28.8,0
2018-06-07,15,1843.4,29.3,0
2018-06-07,16,1838.4,28.6,0
2018-06-07,17,1791.0,28.3,0
2018-06-07,18,1816.5,27.8,0
2018-06-07,19,1766.1,27.1,0
2018-06-07,20,2054.31,26.8,0
2018-06-07,21,2124.49,26.7,0
2018-06-07,22,2231.2,26.5,0
2018-06-07,23,2179.9,26.1,0
2018-06-07,24,2029.2,26.0,0
2018-06-08,1,2006.8,25.8,0
2018-06-08,2,1866.4,25.7,0
2018-06-08,3,1766.17,25.2,0
2018-06-08,4,1747.46,25.2,0
2018-06-08,5,1695.56,25.0,0
2018-06-08,6,1764.44,24.4,0
2018-06-08,7,1628.07,24.1,0
2018-06-08,8,1539.07,24.9,0
2018-06-08,9,1554.38,26.5,0
2018-06-08,10,1590.09,28.1,0
2018-06-08,11,1657.08,29.0,0
2018-06-08,12,1659.08,29.5,0
2018-06-08,13,1647.4,30.4,0
2018-06-08,14,1674.97,29.7,0
2018-06-08,15,1310.05,29.2,0
2018-06-08,16,1341.57,29.2,0
2018-06-08,17,1413.18,29.1,0
2018-06-08,18,1512.9,28.3,0
2018-06-08,19,1611.84,27.4,0
2018-06-08,20,1843.33,27.0,0
2018-06-08,21,1919.63,27.0,0
2018-06-08,22,1889.86,26.8,0
2018-06-08,23,1828.92,26.5,0
2018-06-08,24,1763.63,26.1,0
2018-06-09,1,1680.8,25.9,0
2018-06-09,2,1681.8,26.0,0
2018-06-09,3,1653.6,25.6,0
2018-06-09,4,1539.7,25.2,0
2018-06-09,5,1563.4,25.0,0
2018-06-09,6,1592.8,25.0,0
2018-06-09,7,1601.9,24.9,0
2018-06-09,8,1498.7,25.5,0
2018-06-09,9,1543.8,26.5,0
2018-06-09,10,1513.3,27.6,0
2018-06-09,11,1597.7,28.4,0
2018-06-09,12,1643.0,29.0,0
2018-06-09,13,1541.9,27.3,0
2018-06-09,14,1527.9,27.7,0
2018-06-09,15,1547.6,27.5,0
2018-06-09,16,1657.4,27.4,0
2018-06-09,17,1684.5,27.0,0
2018-06-09,18,1758.3,26.5,0
2018-06-09,19,1707.0,26.2,0
2018-06-09,20,2061.8,26.1,0
2018-06-09,21,2130.42,26.1,0
2018-06-09,22,2088.8,25.7,0
2018-06-09,23,2212.8,25.2,0
2018-06-09,24,1999.7,25.1,0
2018-06-10,1,1933.2,25.7,0
2018-06-10,2,1817.11,25.0,0
2018-06-10,3,1713.17,24.8,0
2018-06-10,4,1751.94,24.6,0
2018-06-10,5,1783.78,24.8,0
2018-06-10,6,1781.18,24.8,0
2018-06-10,7,1614.49,24.7,0
2018-06-10,8,1660.85,24.5,0
2018-06-10,9,1612.51,25.0,0
2018-06-10,10,1659.53,26.0,0
2018-06-10,11,1710.55,26.5,0
2018-06-10,12,1719.05,27.8,0
2018-06-10,13,1741.8,29.1,0
2018-06-10,14,1713.57,28.8,0
2018-06-10,15,1760.6,28.6,0
2018-06-10,16,1745.07,27.6,0
2018-06-10,17,1700.75,27.2,0
2018-06-10,18,1708.0,26.6,0
2018-06-10,19,1689.99,25.9,0
2018-06-10,20,1942.25,25.4,0
2018-06-10,21,2054.87,25.5,0
2018-06-10,22,2033.31,25.5,0
2018-06-10,23,1840.41,25.5,0
2018-06-10,24,1657.96,25.2,0
2018-06-11,1,1650.82,25.1,0
2018-06-11,2,1525.7,24.6,0
2018-06-11,3,1458.4,24.5,0
2018-06-11,4,1416.0,24.5,0
2018-06-11,5,1391.1,24.5,0
2018-06-11,6,1362.4,24.5,0
2018-06-11,7,1354.0,24.4,0
2018-06-11,8,1342.1,24.6,0
2018-06-11,9,1385.1,25.2,0
2018-06-11,10,1326.3,26.2,0
2018-06-11,11,1366.0,26.8,0
2018-06-11,12,1372.7,26.9,0
2018-06-11,13,1413.6,27.9,0
2018-06-11,14,1590.2,28.0,0
2018-06-11,15,1424.4,28.4,0
2018-06-11,16,1364.0,27.8,0
2018-06-11,17,1428.8,27.4,0
2018-06-11,18,1585.4,26.8,0
2018-06-11,19,1580.4,26.2,0
2018-06-11,20,1837.13,25.9,0
2018-06-11,21,1844.3,25.8,0
2018-06-11,22,1861.6,25.6,0
2018-06-11,23,1852.7,25.5,0
2018-06-11,24,1689.2,25.2,0
2018-06-12,1,1659.8,25.0,0
2018-06-12,2,1610.2,24.8,0
2018-06-12,3,1673.4,24.8,0
2018-06-12,4,1815.9,24.6,0
2018-06-12,5,1764.3,24.1,0
2018-06-12,6,1743.3,24.0,0
2018-06-12,7,1533.5,23.8,0
2018-06-12,8,1555.9,24.8,0
2018-06-12,9,1521.3,26.2,0
2018-06-12,10,1456.9,27.6,0
2018-06-12,11,1452.0,28.5,0
2018-06-12,12,1488.3,28.9,0
2018-06-12,13,1536.0,29.0,0
2018-06-12,14,1543.0,28.9,0
2018-06-12,15,1517.8,28.6,0
2018-06-12,16,1533.2,28.5,0
2018-06-12,17,1537.2,28.1,0
2018-06-12,18,1494.3,27.6,0
2018-06-12,19,1583.9,27.0,0
2018-06-12,20,2008.28,26.5,0
2018-06-12,21,2024.08,26.4,0
2018-06-12,22,2024.6,26.3,0
2018-06-12,23,1919.8,26.1,0
2018-06-12,24,1667.1,26.0,0
2018-06-13,1,1592.7,25.7,0
2018-06-13,2,1644.6,25.8,0
2018-06-13,3,1617.2,25.4,0
2018-06-13,4,1559.3,25.0,0
2018-06-13,5,1463.5,24.8,0
2018-06-13,6,1447.0,24.5,0
2018-06-13,7,1352.5,24.4,0
2018-06-13,8,1377.0,25.4,0
2018-06-13,9,1346.3,26.5,0
2018-06-13,10,1303.7,27.6,0
2018-06-13,11,1243.5,28.1,0
2018-06-13,12,1267.8,28.5,0
2018-06-13,13,1289.0,28.5,0
2018-06-13,14,1197.1,28.6,0
2018-06-13,15,1262.3,28.7,0
2018-06-13,16,1347.6,28.5,0
2018-06-13,17,1316.9,28.2,0
2018-06-13,18,1432.4,27.8,0
2018-06-13,19,1432.1,27.0,0
2018-06-13,20,1761.66,26.5,0
2018-06-13,21,1852.41,26.3,0
2018-06-13,22,1915.5,26.0,0
2018-06-13,23,1913.9,25.8,0
2018-06-13,24,1744.8,25.5,0
2018-06-14,1,1700.8,25.7,0
2018-06-14,2,1616.0,25.9,0
2018-06-14,3,1606.7,25.9,0
2018-06-14,4,1584.5,25.5,0
2018-06-14,5,1571.2,25.0,0
2018-06-14,6,1591.6,24.6,0
2018-06-14,7,1544.9,24.5,0
2018-06-14,8,1407.9,25.5,0
2018-06-14,9,1477.3,27.0,0
2018-06-14,10,1517.1,28.1,0
2018-06-14,11,1556.6,29.2,0
2018-06-14,12,1616.5,29.6,0
2018-06-14,13,1649.2,29.3,0
2018-06-14,14,1669.2,29.8,0
2018-06-14,15,1632.6,29.6,0
2018-06-14,16,1623.2,28.9,0
2018-06-14,17,1641.2,28.5,0
2018-06-14,18,1684.1,27.9,0
2018-06-14,19,1625.4,27.2,0
2018-06-14,20,1953.01,27.0,0
2018-06-14,21,2015.5,26.8,0
2018-06-14,22,2114.9,26.5,0
2018-06-14,23,2031.3,26.3,0
2018-06-14,24,1951.2,26.0,0
2018-06-15,1,1871.8,25.9,1
2018-06-15,2,1741.3,25.8,1
2018-06-15,3,1725.8,25.7,1
2018-06-15,4,1714.9,25.1,1
2018-06-15,5,1621.8,24.8,1
2018-06-15,6,1604.3,24.6,1
2018-06-15,7,1662.4,24.5,1
2018-06-15,8,1482.1,25.2,1
2018-06-15,9,1547.2,26.5,1
2018-06-15,10,1586.5,28.4,1
2018-06-15,11,1436.1,29.4,1
2018-06-15,12,1605.8,29.8,1
2018-06-15,13,1629.7,29.9,1
2018-06-15,14,1663.9,28.2,1
2018-06-15,15,1666.8,28.5,1
2018-06-15,16,1788.7,27.8,1
2018-06-15,17,1796.9,28.0,1
2018-06-15,18,1769.2,27.0,1
2018-06-15,19,1771.8,26.8,1
2018-06-15,20,2121.69,26.3,1
2018-06-15,21,2169.99,26.2,1
2018-06-15,22,2191.3,26.2,1
2018-06-15,23,2137.0,26.0,1
2018-06-15,24,2027.1,25.6,1
2018-06-16,1,1923.5,26.1,0
2018-06-16,2,1837.4,25.6,0
2018-06-16,3,1789.7,25.3,0
2018-06-16,4,1731.5,25.1,0
2018-06-16,5,1777.6,24.9,0
2018-06-16,6,1790.9,24.5,0
2018-06-16,7,1574.0,24.5,0
2018-06-16,8,1519.2,25.0,0
2018-06-16,9,1584.4,25.9,0
2018-06-16,10,1640.3,26.6,0
2018-06-16,11,1664.5,27.5,0
2018-06-16,12,1639.2,28.5,0
2018-06-16,13,1691.7,28.4,0
2018-06-16,14,1529.2,28.6,0
2018-06-16,15,1637.4,28.5,0
2018-06-16,16,1583.2,28.7,0
2018-06-16,17,1743.9,28.1,0
2018-06-16,18,1752.9,27.1,0
2018-06-16,19,1794.3,26.7,0
2018-06-16,20,2017.54,26.5,0
2018-06-16,21,2093.66,26.4,0
2018-06-16,22,2072.5,26.2,0
2018-06-16,23,2080.2,26.0,0
2018-06-16,24,1932.5,25.4,0
2018-06-17,1,1871.4,25.1,0
2018-06-17,2,1824.8,25.0,0
2018-06-17,3,1833.42,24.4,0
2018-06-17,4,1759.53,24.1,0
2018-06-17,5,1765.55,23.9,0
2018-06-17,6,1780.15,23.9,0
2018-06-17,7,1757.04,23.6,0
2018-06-17,8,1637.18,24.6,0
2018-06-17,9,1561.95,24.6,0
2018-06-17,10,1542.88,25.2,0
2018-06-17,11,1564.45,25.6,0
2018-06-17,12,1578.12,26.6,0
2018-06-17,13,1411.3,27.0,0
2018-06-17,14,1312.38,27.5,0
2018-06-17,15,1367.36,27.7,0
2018-06-17,16,1319.83,28.1,0
2018-06-17,17,1269.47,27.3,0
2018-06-17,18,1396.27,27.0,0
2018-06-17,19,1474.55,26.5,0
2018-06-17,20,1759.22,26.1,0
2018-06-17,21,1855.29,25.9,0
2018-06-17,22,1807.07,25.7,0
2018-06-17,23,1747.6,25.4,0
2018-06-17,24,1640.51,25.0,0
2018-06-18,1,1609.12,24.9,0
2018-06-18,2,1532.44,24.5,0
2018-06-18,3,1522.64,24.4,0
2018-06-18,4,1511.24,24.1,0
2018-06-18,5,1525.64,24.0,0
2018-06-18,6,1539.75,23.9,0
2018-06-18,7,1539.4,23.9,0
2018-06-18,8,1452.4,24.0,0
2018-06-18,9,1410.46,24.7,0
2018-06-18,10,1528.94,25.4,0
2018-06-18,11,1573.84,26.1,0
2018-06-18,12,1534.89,27.5,0
2018-06-18,13,1566.12,27.9,0
2018-06-18,14,1603.86,27.5,0
2018-06-18,15,1592.72,26.6,0
2018-06-18,16,1618.22,26.9,0
2018-06-18,17,1626.62,25.4,0
2018-06-18,18,1679.53,24.7,0
2018-06-18,19,1675.03,24.3,0
2018-06-18,20,1839.53,24.1,0
2018-06-18,21,1932.2,24.2,0
2018-06-18,22,1971.83,24.2,0
2018-06-18,23,1963.96,24.1,0
2018-06-18,24,1908.5,24.2,0
2018-06-19,1,1823.7,24.0,0
2018-06-19,2,1801.2,24.1,0
2018-06-19,3,1759.3,23.7,0
2018-06-19,4,1748.2,23.4,0
2018-06-19,5,1749.4,23.2,0
2018-06-19,6,1715.9,23.5,0
2018-06-19,7,1470.7,23.7,0
2018-06-19,8,1522.7,24.0,0
2018-06-19,9,1496.6,24.9,0
2018-06-19,10,1500.4,24.8,0
2018-06-19,11,1612.4,25.9,0
2018-06-19,12,1573.1,27.1,0
2018-06-19,13,1579.7,27.6,0
2018-06-19,14,1628.6,27.4,0
2018-06-19,15,1649.7,27.2,0
2018-06-19,16,1698.7,27.2,0
2018-06-19,17,1540.7,26.9,0
2018-06-19,18,1673.3,26.1,0
2018-06-19,19,1721.9,25.5,0
2018-06-19,20,1848.33,25.2,0
2018-06-19,21,2021.96,25.0,0
2018-06-19,22,2210.6,24.8,0
2018-06-19,23,2094.2,24.6,0
2018-06-19,24,1997.6,24.4,0
2018-06-20,1,1966.2,23.5,0
2018-06-20,2,1762.5,23.5,0
2018-06-20,3,1652.8,23.4,0
2018-06-20,4,1684.7,23.2,0
2018-06-20,5,1669.9,23.1,0
2018-06-20,6,1635.7,23.1,0
2018-06-20,7,1596.1,23.0,0
2018-06-20,8,1531.4,23.9,0
2018-06-20,9,1471.0,25.3,0
2018-06-20,10,1354.8,26.8,0
2018-06-20,11,1355.6,27.4,0
2018-06-20,12,1346.5,27.2,0
2018-06-20,13,1296.1,27.4,0
2018-06-20,14,1435.4,27.5,0
2018-06-20,15,1457.8,27.3,0
2018-06-20,16,1574.5,26.9,0
2018-06-20,17,1587.5,26.6,0
2018-06-20,18,1565.2,26.1,0
2018-06-20,19,1617.6,25.6,0
2018-06-20,20,1866.53,25.2,0
2018-06-20,21,1995.35,25.1,0
2018-06-20,22,2028.3,25.0,0
2018-06-20,23,2004.3,24.9,0
2018-06-20,24,1836.7,24.8,0
2018-06-21,1,1809.2,24.1,0
2018-06-21,2,1727.7,24.0,0
2018-06-21,3,1662.9,23.9,0
2018-06-21,4,1670.3,23.8,0
2018-06-21,5,1629.5,23.5,0
2018-06-21,6,1609.1,23.2,0
2018-06-21,7,1518.8,23.1,0
2018-06-21,8,1550.7,23.8,0
2018-06-21,9,1517.8,24.8,0
2018-06-21,10,1524.8,26.0,0
2018-06-21,11,1549.7,26.9,0
2018-06-21,12,1659.5,27.0,0
2018-06-21,13,1607.5,27.2,0
2018-06-21,14,1662.4,25.6,0
2018-06-21,15,1686.4,26.1,0
2018-06-21,16,1709.5,26.0,0
2018-06-21,17,1701.2,26.1,0
2018-06-21,18,1597.2,25.5,0
2018-06-21,19,1729.7,25.0,0
2018-06-21,20,1986.21,24.7,0
2018-06-21,21,2058.08,24.5,0
2018-06-21,22,2111.8,24.2,0
2018-06-21,23,2079.4,24.1,0
2018-06-21,24,1945.0,24.0,0
2018-06-22,1,1911.4,23.5,0
2018-06-22,2,1872.8,23.8,0
2018-06-22,3,1782.3,23.7,0
2018-06-22,4,1685.7,23.6,0
2018-06-22,5,1661.0,23.8,0
2018-06-22,6,1710.2,23.8,0
2018-06-22,7,1612.0,23.6,0
2018-06-22,8,1594.4,24.1,0
2018-06-22,9,1577.3,24.6,0
2018-06-22,10,1644.4,25.2,0
2018-06-22,11,1652.6,25.6,0
2018-06-22,12,1697.6,26.0,0
2018-06-22,13,1638.8,26.4,0
2018-06-22,14,1504.5,26.5,0
2018-06-22,15,1579.1,26.0,0
2018-06-22,16,1464.8,25.8,0
2018-06-22,17,1546.7,25.4,0
2018-06-22,18,1578.6,24.8,0
2018-06-22,19,1645.8,24.5,0
2018-06-22,20,1988.43,24.2,0
2018-06-22,21,2078.89,24.1,0
2018-06-22,22,2114.9,24.0,0
2018-06-22,23,2124.6,24.1,0
2018-06-22,24,1944.4,24.0,0
2018-06-23,1,1874.5,23.9,0
2018-06-23,2,1814.8,23.9,0
2018-06-23,3,1716.3,23.5,0
2018-06-23,4,1773.4,23.5,0
2018-06-23,5,1772.7,23.6,0
2018-06-23,6,1773.2,23.5,0
2018-06-23,7,1649.4,23.5,0
2018-06-23,8,1530.5,24.2,0
2018-06-23,9,1575.5,25.0,0
2018-06-23,10,1611.7,25.7,0
2018-06-23,11,1707.4,26.4,0
2018-06-23,12,1670.8,26.9,0
2018-06-23,13,1711.5,25.5,0
2018-06-23,14,1740.6,26.2,0
2018-06-23,15,1719.4,25.6,0
2018-06-23,16,1775.9,25.5,0
2018-06-23,17,1740.8,25.6,0
2018-06-23,18,1772.1,25.5,0
2018-06-23,19,1755.0,25.0,0
2018-06-23,20,2037.93,24.6,0
2018-06-23,21,2096.75,24.4,0
2018-06-23,22,2160.2,24.1,0
2018-06-23,23,2174.5,23.9,0
2018-06-23,24,2007.3,23.6,0
2018-06-24,1,1895.0,23.8,0
2018-06-24,2,1813.2,23.8,0
2018-06-24,3,1809.9,23.5,0
2018-06-24,4,1792.1,23.4,0
2018-06-24,5,1751.0,23.1,0
2018-06-24,6,1733.4,23.0,0
2018-06-24,7,1600.0,22.9,0
2018-06-24,8,1588.7,23.5,0
2018-06-24,9,1618.2,24.2,0
2018-06-24,10,1657.7,25.3,0
2018-06-24,11,1668.8,26.3,0
2018-06-24,12,1661.8,26.7,0
2018-06-24,13,1676.3,26.8,0
2018-06-24,14,1729.0,27.0,0
2018-06-24,15,1736.3,26.6,0
2018-06-24,16,1770.9,26.5,0
2018-06-24,17,1822.6,26.0,0
2018-06-24,18,1826.3,25.3,0
2018-06-24,19,1739.7,24.9,0
2018-06-24,20,2068.84,24.5,0
2018-06-24,21,2129.94,24.5,0
2018-06-24,22,2251.0,24.5,0
2018-06-24,23,2215.5,24.3,0
2018-06-24,24,2079.6,24.0,0
2018-06-25,1,1932.7,24.0,0
2018-06-25,2,1869.11,23.8,0
2018-06-25,3,1647.71,23.5,0
2018-06-25,4,1511.18,23.1,0
2018-06-25,5,1551.48,23.0,0
2018-06-25,6,1702.44,22.8,0
2018-06-25,7,1529.0,22.7,0
2018-06-25,8,1423.75,23.7,0
2018-06-25,9,1499.42,24.9,0
2018-06-25,10,1557.31,26.0,0
2018-06-25,11,1591.7,26.6,0
2018-06-25,12,1613.26,26.9,0
2018-06-25,13,1614.85,27.0,0
2018-06-25,14,1570.82,26.9,0
2018-06-25,15,1543.01,26.7,0
2018-06-25,16,1562.4,26.6,0
2018-06-25,17,1528.09,26.3,0
2018-06-25,18,1447.62,25.6,0
2018-06-25,19,1480.86,25.0,0
2018-06-25,20,1778.94,24.4,0
2018-06-25,21,1787.62,23.8,0
2018-06-25,22,1874.86,23.6,0
2018-06-25,23,1701.09,23.9,0
2018-06-25,24,1737.41,23.8,0
2018-06-26,1,1698.19,23.0,0
2018-06-26,2,1609.2,23.0,0
2018-06-26,3,1547.4,22.7,0
2018-06-26,4,1537.0,22.4,0
2018-06-26,5,1512.9,22.1,0
2018-06-26,6,1508.0,22.0,0
2018-06-26,7,1404.0,21.9,0
2018-06-26,8,1368.8,22.8,0
2018-06-26,9,1362.1,24.4,0
2018-06-26,10,1350.7,25.8,0
2018-06-26,11,1398.0,26.4,0
2018-06-26,12,1388.8,26.5,0
2018-06-26,13,1410.1,26.9,0
2018-06-26,14,1431.4,26.6,0
2018-06-26,15,1477.0,26.6,0
2018-06-26,16,1496.9,26.7,0
2018-06-26,17,1469.0,26.5,0
2018-06-26,18,1567.7,25.8,0
2018-06-26,19,1598.8,24.8,0
2018-06-26,20,1885.17,24.5,0
2018-06-26,21,2005.37,24.5,0
2018-06-26,22,2015.3,24.5,0
2018-06-26,23,2017.5,24.4,0
2018-06-26,24,1869.4,24.4,0
2018-06-27,1,1773.4,24.5,0
2018-06-27,2,1735.4,24.4,0
2018-06-27,3,1670.7,24.0,0
2018-06-27,4,1636.6,24.0,0
2018-06-27,5,1581.3,23.8,0
2018-06-27,6,1613.4,23.6,0
2018-06-27,7,1548.6,23.4,0
2018-06-27,8,1538.3,24.1,0
2018-06-27,9,1427.1,25.3,0
2018-06-27,10,1371.7,26.5,0
2018-06-27,11,1356.1,27.0,0
2018-06-27,12,1352.2,27.1,0
2018-06-27,13,1359.8,27.1,0
2018-06-27,14,1361.9,27.0,0
2018-06-27,15,1359.6,27.1,0
2018-06-27,16,1420.0,26.7,0
2018-06-27,17,1351.9,26.4,0
2018-06-27,18,1508.6,25.8,0
2018-06-27,19,1543.0,25.0,0
2018-06-27,20,1845.98,24.6,0
2018-06-27,21,1895.52,24.5,0
2018-06-27,22,1895.6,24.4,0
2018-06-27,23,1821.2,24.1,0
2018-06-27,24,1755.9,23.9,0
2018-06-28,1,1712.3,23.9,0
2018-06-28,2,1601.6,23.9,0
2018-06-28,3,1604.2,23.8,0
2018-06-28,4,1607.4,23.6,0
2018-06-28,5,1580.6,23.5,0
2018-06-28,6,1570.8,23.3,0
2018-06-28,7,1591.8,23.2,0
2018-06-28,8,1310.9,23.6,0
2018-06-28,9,1472.6,24.6,0
2018-06-28,10,1523.8,26.0,0
2018-06-28,11,1589.4,26.5,0
2018-06-28,12,1593.7,27.0,0
