date,hour,demand_mw,is_holiday,temperature_c,temp_accra,temp_kumasi,temp_takoradi,temp_tema
2018-01-01,2,1467.94,1,24.85,24.5,,,25.2
2018-01-01,3,1483.37,1,24.65,24.3,,,25.0
2018-01-01,4,1461.27,1,24.7,24.5,,,24.9
2018-01-01,5,1438.91,1,24.75,24.4,,,25.1
2018-01-01,6,1431.84,1,24.75,24.5,,,25.0
2018-01-01,7,1371.69,1,24.75,24.6,,,24.9
2018-01-01,8,1230.07,1,24.950000000000003,24.8,,,25.1
2018-01-01,9,1216.2,1,25.6,25.6,,,25.6
2018-01-01,10,1223.11,1,26.95,26.7,,,27.2
2018-01-01,11,1231.31,1,28.700000000000003,28.6,,,28.8
2018-01-01,12,1281.69,1,30.05,30.1,,,30.0
2018-01-01,13,1258.99,1,30.4,31.0,,,29.8
2018-01-01,14,1276.49,1,30.799999999999997,31.2,,,30.4
2018-01-01,15,1346.39,1,30.6,30.9,,,30.3
2018-01-01,16,1332.23,1,29.950000000000003,30.3,,,29.6
2018-01-01,17,1287.29,1,29.3,29.6,,,29.0
2018-01-01,18,1301.89,1,28.2,28.5,,,27.9
2018-01-01,19,1403.2,1,26.700000000000003,26.8,,,26.6
2018-01-01,20,1638.91,1,26.15,26.1,,,26.2
2018-01-01,21,1721.43,1,25.950000000000003,25.8,,,26.1
2018-01-01,22,1735.03,1,25.7,25.5,,,25.9
2018-01-01,23,1704.23,1,25.3,25.1,,,25.5
2018-01-01,24,1579.72,1,24.85,24.5,,,25.2
2018-01-02,1,1531.12,0,24.9,,24.9,,
2018-01-02,1,1531.12,0,24.6,24.3,,,24.9
2018-01-02,2,1429.5,0,24.14,,24.14,,
2018-01-02,2,1429.5,0,24.2,24.4,,,24.0
2018-01-02,3,1451.8,0,23.380000000000003,,23.380000000000003,,
2018-01-02,3,1451.8,0,23.4,23.1,,,23.7
2018-01-02,4,1342.3,0,22.62,,22.62,,
2018-01-02,4,1342.3,0,23.3,22.8,,,23.8
2018-01-02,5,1295.4,0,21.86,,21.86,,
2018-01-02,5,1295.4,0,23.450000000000003,23.1,,,23.8
2018-01-02,6,1363.3,0,21.1,,21.1,,
2018-01-02,6,1363.3,0,23.25,23.0,,,23.5
2018-01-02,7,1377.8,0,23.07958922540301,,23.07958922540301,,
2018-01-02,7,1377.8,0,22.9,22.6,,,23.2
2018-01-02,8,1285.4,0,24.999029633912624,,24.999029633912624,,
2018-01-02,8,1285.4,0,23.2,23.2,,,23.2
2018-01-02,9,1288.0,0,26.8,,26.8,,
2018-01-02,9,1288.0,0,24.4,24.2,,,24.6
2018-01-02,10,1372.6,0,28.427778750426548,,28.427778750426548,,
2018-01-02,10,1372.6,0,26.15,26.0,,,26.3
2018-01-02,11,1395.1,0,29.83290665155635,,29.83290665155635,,
2018-01-02,11,1395.1,0,28.35,28.2,,,28.5
2018-01-02,12,1367.3,0,30.9726896031426,,30.9726896031426,,
2018-01-02,12,1367.3,0,30.2,30.4,,,30.0
2018-01-02,13,1443.3,0,31.812495876959357,,31.812495876959357,,
2018-01-02,13,1443.3,0,30.2,31.2,,,29.2
2018-01-02,14,1470.8,0,32.326808384339174,,32.326808384339174,,
2018-01-02,14,1470.8,0,30.05,30.5,,,29.6
2018-01-02,15,1510.2,0,32.5,,32.5,,
2018-01-02,15,1510.2,0,30.25,30.5,,,30.0
2018-01-02,16,1494.7,0,31.74,,31.74,,
2018-01-02,16,1494.7,0,29.9,30.2,,,29.6
2018-01-02,17,1511.7,0,30.98,,30.98,,
2018-01-02,17,1511.7,0,29.15,29.4,,,28.9
2018-01-02,18,1491.1,0,30.22,,30.22,,
2018-01-02,18,1491.1,0,27.7,28.0,,,27.4
2018-01-02,19,1564.9,0,29.46,,29.46,,
2018-01-02,19,1564.9,0,26.5,26.6,,,26.4
2018-01-02,20,1786.47,0,28.700000000000003,,28.700000000000003,,
2018-01-02,20,1786.47,0,26.05,26.0,,,26.1
2018-01-02,21,1820.02,0,27.94,,27.94,,
2018-01-02,21,1820.02,0,25.85,25.7,,,26.0
2018-01-02,22,1922.9,0,27.18,,27.18,,
2018-01-02,22,1922.9,0,25.35,25.1,,,25.6
2018-01-02,23,1836.2,0,26.42,,26.42,,
2018-01-02,23,1836.2,0,24.9,24.5,,,25.3
2018-01-02,24,1675.9,0,25.66,,25.66,,
2018-01-02,24,1675.9,0,24.4,24.0,,,24.8
2018-01-03,1,1596.6,0,24.6,,24.6,,
2018-01-03,1,1596.6,0,23.5,22.8,,,24.2
2018-01-03,2,1494.0,0,23.9,,23.9,,
2018-01-03,2,1494.0,0,23.5,23.0,,,24.0
2018-01-03,3,1450.42,0,23.200000000000003,,23.200000000000003,,
2018-01-03,3,1450.42,0,23.15,22.6,,,23.7
2018-01-03,4,1476.72,0,22.5,,22.5,,
2018-01-03,4,1476.72,0,22.9,22.4,,,23.4
2018-01-03,5,1440.02,0,21.8,,21.8,,
2018-01-03,5,1440.02,0,22.5,22.0,,,23.0
2018-01-03,6,1458.52,0,21.1,,21.1,,
2018-01-03,6,1458.52,0,22.200000000000003,21.6,,,22.8
2018-01-03,7,1486.02,0,22.92330586550277,,22.92330586550277,,
2018-01-03,7,1486.02,0,22.05,21.5,,,22.6
2018-01-03,8,1406.76,0,24.69121150491952,,24.69121150491952,,
2018-01-03,8,1406.76,0,22.549999999999997,21.9,,,23.2
2018-01-03,9,1391.33,0,26.35,,26.35,,
2018-01-03,9,1391.33,0,24.65,24.0,,,25.3
2018-01-03,10,1331.87,0,27.849269901708663,,27.849269901708663,,
2018-01-03,10,1331.87,0,26.9,26.5,,,27.3
2018-01-03,11,1380.83,0,29.143466652749268,,29.143466652749268,,
2018-01-03,11,1380.83,0,28.9,28.8,,,29.0
2018-01-03,12,1429.93,0,30.193266739736607,,30.193266739736607,,
2018-01-03,12,1429.93,0,30.25,30.5,,,30.0
2018-01-03,13,1501.15,0,30.96677251825204,,30.96677251825204,,
2018-01-03,13,1501.15,0,31.0,31.5,,,30.5
2018-01-03,14,1505.49,0,31.440481406628187,,31.440481406628187,,
2018-01-03,14,1505.49,0,31.4,31.7,,,31.1
2018-01-03,15,1477.25,0,31.6,,31.6,,
2018-01-03,15,1477.25,0,31.25,31.4,,,31.1
2018-01-03,16,1538.38,0,30.9,,30.9,,
2018-01-03,16,1538.38,0,30.85,31.0,,,30.7
2018-01-03,17,1488.16,0,30.200000000000003,,30.200000000000003,,
2018-01-03,17,1488.16,0,29.799999999999997,29.9,,,29.7
2018-01-03,18,1442.2,0,29.5,,29.5,,
2018-01-03,18,1442.2,0,28.7,28.9,,,28.5
2018-01-03,19,1564.4,0,28.800000000000004,,28.800000000000004,,
2018-01-03,19,1564.4,0,27.25,27.3,,,27.2
2018-01-03,20,1835.21,0,28.1,,28.1,,
2018-01-03,20,1835.21,0,26.55,26.5,,,26.6
2018-01-03,21,1886.98,0,27.4,,27.4,,
2018-01-03,21,1886.98,0,26.15,26.1,,,26.2
2018-01-03,22,1904.63,0,26.700000000000003,,26.700000000000003,,
2018-01-03,22,1904.63,0,25.4,25.2,,,25.6
2018-01-03,23,1846.04,0,26.0,,26.0,,
2018-01-03,23,1846.04,0,25.0,24.8,,,25.2
2018-01-03,24,1693.68,0,25.3,,25.3,,
2018-01-03,24,1693.68,0,24.6,24.4,,,24.8
2018-01-04,1,1611.49,0,25.666666666666664,,25.6,25.73333333333333,
2018-01-04,1,1611.49,0,23.1,22.6,,,23.6
2018-01-04,2,1550.56,0,25.063333333333333,,24.92,25.206666666666667,
2018-01-04,2,1550.56,0,23.0,22.5,,,23.5
2018-01-04,3,1519.09,0,24.46,,24.24,24.68,
2018-01-04,3,1519.09,0,22.65,22.1,,,23.2
2018-01-04,4,1481.3,0,23.85666666666667,,23.56,24.153333333333336,
2018-01-04,4,1481.3,0,22.7,22.0,,,23.4
2018-01-04,5,1486.57,0,23.253333333333334,,22.88,23.62666666666667,
2018-01-04,5,1486.57,0,22.25,21.5,,,23.0
2018-01-04,6,1489.69,0,22.65,,22.2,23.1,
2018-01-04,6,1489.69,0,21.85,21.4,,,22.3
2018-01-04,7,1537.65,0,24.221516007885718,,23.97121141220269,24.47182060356875,
2018-01-04,7,1537.65,0,21.45,20.9,,,22.0
2018-01-04,8,1485.12,0,25.745282297097305,,25.68860546192182,25.801959132272785,
2018-01-04,8,1485.12,0,21.9,21.4,,,22.4
2018-01-04,9,1362.63,0,27.175,,27.3,27.05,
2018-01-04,9,1362.63,0,24.15,23.6,,,24.7
2018-01-04,10,1446.84,0,28.46722786766318,,28.7564336188027,28.17802211652366,
2018-01-04,10,1446.84,0,27.3,27.0,,,27.6
2018-01-04,11,1490.23,0,29.58270221022675,,30.01365331981357,29.151751100639927,
2018-01-04,11,1490.23,0,29.65,29.9,,,29.4
2018-01-04,12,1507.37,0,30.48752990424917,,31.03345911860127,29.941600689897065,
2018-01-04,12,1507.37,0,30.85,31.6,,,30.1
2018-01-04,13,1526.98,0,31.154218218112472,,31.784864732016263,30.52357170420868,
2018-01-04,13,1526.98,0,30.6,31.6,,,29.6
2018-01-04,14,1535.56,0,31.562510164760482,,32.245039080724524,30.879981248796444,
2018-01-04,14,1535.56,0,30.7,31.0,,,30.4
2018-01-04,15,1548.1,0,31.7,,32.4,31.0,
2018-01-04,15,1548.1,0,30.549999999999997,30.9,,,30.2
2018-01-04,16,1552.8,0,31.096666666666664,,31.72,30.473333333333333,
2018-01-04,16,1552.8,0,30.2,30.5,,,29.9
2018-01-04,17,1539.2,0,30.493333333333332,,31.04,29.946666666666665,
2018-01-04,17,1539.2,0,29.2,29.5,,,28.9
2018-01-04,18,1508.1,0,29.89,,30.36,29.42,
2018-01-04,18,1508.1,0,28.3,28.6,,,28.0
2018-01-04,19,1552.7,0,29.286666666666665,,29.68,28.89333333333333,
2018-01-04,19,1552.7,0,27.0,27.1,,,26.9
2018-01-04,20,1804.24,0,28.683333333333334,,29.0,28.366666666666667,
2018-01-04,20,1804.24,0,26.200000000000003,26.1,,,26.3
2018-01-04,21,1892.74,0,28.08,,28.32,27.84,
2018-01-04,21,1892.74,0,25.6,25.4,,,25.8
2018-01-04,22,1880.44,0,27.476666666666667,,27.64,27.313333333333333,
2018-01-04,22,1880.44,0,24.8,24.5,,,25.1
2018-01-04,23,1802.23,0,26.873333333333335,,26.96,26.78666666666667,
2018-01-04,23,1802.23,0,24.25,23.9,,,24.6
2018-01-04,24,1704.64,0,26.270000000000003,,26.28,26.26,
2018-01-04,24,1704.64,0,23.799999999999997,23.4,,,24.2
2018-01-05,1,1584.84,0,25.183333333333334,,25.1,25.266666666666666,
2018-01-05,1,1584.84,0,22.9,22.0,,,23.8
2018-01-05,2,1547.24,0,24.566666666666666,,24.44,24.69333333333333,
2018-01-05,2,1547.24,0,22.7,22.0,,,23.4
2018-01-05,3,1536.87,0,23.950000000000003,,23.78,24.12,
2018-01-05,3,1536.87,0,22.2,21.5,,,22.9
2018-01-05,4,1546.98,0,23.333333333333336,,23.12,23.546666666666667,
2018-01-05,4,1546.98,0,22.15,21.5,,,22.8
2018-01-05,5,1494.68,0,22.71666666666667,,22.46,22.973333333333333,
2018-01-05,5,1494.68,0,22.0,21.1,,,22.9
2018-01-05,6,1534.09,0,22.1,,21.8,22.4,
2018-01-05,6,1534.09,0,21.65,20.8,,,22.5
2018-01-05,7,1506.19,0,23.706245643419106,,23.51911695890261,23.8933743279356,
2018-01-05,7,1506.19,0,21.3,20.5,,,22.1
2018-01-05,8,1422.14,0,25.263686325762436,,25.18599941892412,25.341373232600752,
2018-01-05,8,1422.14,0,21.8,21.1,,,22.5
2018-01-05,9,1444.6,0,26.725,,26.75,26.7,
2018-01-05,9,1444.6,0,24.0,23.6,,,24.4
2018-01-05,10,1457.21,0,28.04578538960049,,28.16359733589674,27.92797344330424,
2018-01-05,10,1457.21,0,26.85,26.7,,,27.0
2018-01-05,11,1476.9,0,29.185911098850546,,29.38383998687788,28.98798221082321,
2018-01-05,11,1476.9,0,28.85,28.9,,,28.8
2018-01-05,12,1520.56,0,30.110734985006058,,30.373651497465943,29.847818472546173,
2018-01-05,12,1520.56,0,29.85,30.2,,,29.5
2018-01-05,13,1510.9,0,30.79215674226965,,31.10295694578049,30.48135653875881,
2018-01-05,13,1510.9,0,29.65,30.4,,,28.9
2018-01-05,14,1525.81,0,31.209471715362923,,31.54959675482086,30.86934667590499,
2018-01-05,14,1525.81,0,29.7,30.2,,,29.2
2018-01-05,15,1577.05,0,31.35,,31.7,31.0,
2018-01-05,15,1577.05,0,29.549999999999997,29.9,,,29.2
2018-01-05,16,1573.27,0,30.73333333333333,,31.04,30.426666666666662,
2018-01-05,16,1573.27,0,29.3,29.6,,,29.0
2018-01-05,17,1626.15,0,30.116666666666667,,30.38,29.85333333333333,
2018-01-05,17,1626.15,0,28.65,28.8,,,28.5
2018-01-05,18,1587.57,0,29.5,,29.72,29.28,
2018-01-05,18,1587.57,0,27.6,27.7,,,27.5
2018-01-05,19,1620.0,0,28.883333333333333,,29.06,28.706666666666667,
2018-01-05,19,1620.0,0,26.4,26.4,,,26.4
2018-01-05,20,1805.84,0,28.266666666666666,,28.4,28.133333333333333,
2018-01-05,20,1805.84,0,25.95,25.9,,,26.0
2018-01-05,21,1905.02,0,27.65,,27.74,27.56,
2018-01-05,21,1905.02,0,25.700000000000003,25.6,,,25.8
2018-01-05,22,1913.52,0,27.03333333333333,,27.08,26.986666666666665,
2018-01-05,22,1913.52,0,25.5,25.4,,,25.6
2018-01-05,23,1889.54,0,26.416666666666664,,26.42,26.41333333333333,
2018-01-05,23,1889.54,0,25.1,25.0,,,25.2
2018-01-05,24,1852.52,0,25.8,,25.76,25.84,
2018-01-05,24,1852.52,0,24.9,24.7,,,25.1
2018-01-06,1,1706.25,0,25.700000000000003,,25.700000000000003,,
2018-01-06,1,1706.25,0,24.3,24.0,,,24.6
2018-01-06,2,1457.65,0,25.02,,25.02,,
2018-01-06,2,1457.65,0,23.8,23.5,,,24.1
2018-01-06,3,1559.6,0,24.34,,24.34,,
2018-01-06,3,1559.6,0,23.35,23.1,,,23.6
2018-01-06,4,1493.72,0,23.66,,23.66,,
2018-01-06,4,1493.72,0,22.95,22.7,,,23.2
2018-01-06,5,1515.44,0,22.98,,22.98,,
2018-01-06,5,1515.44,0,22.65,22.3,,,23.0
2018-01-06,6,1528.25,0,22.3,,22.3,,
2018-01-06,6,1528.25,0,22.45,22.2,,,22.7
2018-01-06,7,1511.5,0,24.07121141220269,,24.07121141220269,,
2018-01-06,7,1511.5,0,22.25,22.0,,,22.5
2018-01-06,8,1421.44,0,25.788605461921826,,25.788605461921826,,
2018-01-06,8,1421.44,0,22.65,22.5,,,22.8
2018-01-06,9,1348.5,0,27.4,,27.4,,
2018-01-06,9,1348.5,0,24.25,24.0,,,24.5
2018-01-06,10,1368.95,0,28.8564336188027,,28.8564336188027,,
2018-01-06,10,1368.95,0,26.6,26.3,,,26.9
2018-01-06,11,1372.74,0,30.113653319813576,,30.113653319813576,,
2018-01-06,11,1372.74,0,28.75,28.5,,,29.0
2018-01-06,12,1376.65,0,31.133459118601277,,31.133459118601277,,
2018-01-06,12,1376.65,0,30.5,30.4,,,30.6
2018-01-06,13,1382.85,0,31.884864732016265,,31.884864732016265,,
2018-01-06,13,1382.85,0,30.35,30.7,,,30.0
2018-01-06,14,1404.25,0,32.34503908072452,,32.34503908072452,,
2018-01-06,14,1404.25,0,30.25,30.7,,,29.8
2018-01-06,15,1425.15,0,32.5,,32.5,,
2018-01-06,15,1425.15,0,29.65,29.9,,,29.4
2018-01-06,16,1447.15,0,31.82,,31.82,,
2018-01-06,16,1447.15,0,29.5,29.5,,,29.5
2018-01-06,17,1447.15,0,31.14,,31.14,,
2018-01-06,17,1447.15,0,28.9,29.1,,,28.7
2018-01-06,18,1493.15,0,30.46,,30.46,,
2018-01-06,18,1493.15,0,28.05,28.3,,,27.8
2018-01-06,19,1522.39,0,29.78,,29.78,,
2018-01-06,19,1522.39,0,26.95,27.0,,,26.9
2018-01-06,20,1759.74,0,29.1,,29.1,,
2018-01-06,20,1759.74,0,26.55,26.6,,,26.5
2018-01-06,21,1771.16,0,28.42,,28.42,,
2018-01-06,21,1771.16,0,26.45,26.4,,,26.5
2018-01-06,22,1916.82,0,27.74,,27.74,,
2018-01-06,22,1916.82,0,26.299999999999997,26.2,,,26.4
2018-01-06,23,1838.2,0,27.06,,27.06,,
2018-01-06,23,1838.2,0,26.15,26.1,,,26.2
2018-01-06,24,1754.57,0,26.380000000000003,,26.380000000000003,,
2018-01-06,24,1754.57,0,26.0,25.9,,,26.1
2018-01-07,1,1652.29,0,26.55,,26.6,26.5,
2018-01-07,1,1652.29,0,25.75,25.6,,,25.9
2018-01-07,2,1630.2,0,26.04,,26.06,26.020000000000003,
2018-01-07,2,1630.2,0,25.7,25.5,,,25.9
2018-01-07,3,1576.8,0,25.53,,25.52,25.54,
2018-01-07,3,1576.8,0,25.4,25.2,,,25.6
2018-01-07,4,1591.9,0,25.02,,24.98,25.06,
2018-01-07,4,1591.9,0,25.3,25.1,,,25.5
2018-01-07,5,1555.6,0,24.509999999999998,,24.44,24.58,
2018-01-07,5,1555.6,0,25.1,24.9,,,25.3
2018-01-07,6,1575.5,0,24.0,,23.9,24.1,
2018-01-07,6,1575.5,0,24.7,24.4,,,25.0
2018-01-07,7,1604.9,0,25.328408559152017,,25.306550239102133,25.3502668792019,
2018-01-07,7,1604.9,0,24.35,24.1,,,24.6
2018-01-07,8,1537.7,0,26.616454096441366,,26.67036316093792,26.56254503194481,
2018-01-07,8,1537.7,0,24.799999999999997,24.7,,,24.9
2018-01-07,9,1445.2,0,27.825,,27.95,27.7,
2018-01-07,9,1445.2,0,25.8,25.6,,,26.0
2018-01-07,10,1392.8,0,28.91732521410202,,29.106579638460968,28.72807078974308,
2018-01-07,10,1392.8,0,27.15,26.8,,,27.5
2018-01-07,11,1336.4,0,29.860239989860183,,30.104959989263723,29.615519990456644,
2018-01-07,11,1336.4,0,28.75,28.5,,,29.0
2018-01-07,12,1327.1,0,30.62509433895096,,30.914805770653956,30.33538290724796,
2018-01-07,12,1327.1,0,30.25,30.1,,,30.4
2018-01-07,13,1364.8,0,31.1886485490122,,31.511510228365857,30.865786869658542,
2018-01-07,13,1364.8,0,30.95,31.4,,,30.5
2018-01-07,14,1398.9,0,31.53377931054339,,31.876942799398883,31.1906158216879,
2018-01-07,14,1398.9,0,31.0,31.5,,,30.5
2018-01-07,15,1459.2,0,31.65,,32.0,31.3,
2018-01-07,15,1459.2,0,29.95,30.5,,,29.4
2018-01-07,16,1463.1,0,31.14,,31.46,30.82,
2018-01-07,16,1463.1,0,29.3,29.3,,,29.3
2018-01-07,17,1502.6,0,30.630000000000003,,30.92,30.34,
2018-01-07,17,1502.6,0,28.450000000000003,28.6,,,28.3
2018-01-07,18,1491.4,0,30.119999999999997,,30.38,29.86,
2018-01-07,18,1491.4,0,27.5,27.5,,,27.5
2018-01-07,19,1541.8,0,29.61,,29.84,29.380000000000003,
2018-01-07,19,1541.8,0,26.65,26.6,,,26.7
2018-01-07,20,1808.63,0,29.1,,29.3,28.9,
2018-01-07,20,1808.63,0,26.299999999999997,26.2,,,26.4
2018-01-07,21,1844.34,0,28.590000000000003,,28.76,28.42,
2018-01-07,21,1844.34,0,26.049999999999997,25.9,,,26.2
2018-01-07,22,1873.4,0,28.08,,28.22,27.94,
2018-01-07,22,1873.4,0,25.8,25.6,,,26.0
2018-01-07,23,1827.1,0,27.57,,27.68,27.46,
2018-01-07,23,1827.1,0,25.65,25.5,,,25.8
2018-01-07,24,1707.9,0,27.060000000000002,,27.14,26.98,
2018-01-07,24,1707.9,0,25.4,25.2,,,25.6
2018-01-08,1,1638.8,0,26.95,,27.03333333333333,26.866666666666667,
2018-01-08,1,1638.8,0,25.450000000000003,25.3,,,25.6
2018-01-08,2,1604.6,0,26.42,,26.386666666666667,26.453333333333333,
2018-01-08,2,1604.6,0,25.4,25.2,,,25.6
2018-01-08,3,1560.9,0,25.89,,25.74,26.04,
2018-01-08,3,1560.9,0,25.25,25.0,,,25.5
2018-01-08,4,1577.1,0,25.36,,25.093333333333334,25.62666666666667,
2018-01-08,4,1577.1,0,25.05,24.8,,,25.3
2018-01-08,5,1524.2,0,24.83,,24.446666666666665,25.21333333333333,
2018-01-08,5,1524.2,0,24.85,24.6,,,25.1
2018-01-08,6,1540.7,0,24.3,,23.8,24.8,
2018-01-08,6,1540.7,0,24.7,24.4,,,25.0
2018-01-08,7,1562.4,0,25.680503012452096,,25.484387323369223,25.87661870153497,
2018-01-08,7,1562.4,0,24.5,24.2,,,24.8
2018-01-08,8,1511.3,0,27.01906013943907,,27.117595390258987,26.92052488861915,
2018-01-08,8,1511.3,0,24.75,24.5,,,25.0
2018-01-08,9,1562.1,0,28.275,,28.65,27.9,
2018-01-08,9,1562.1,0,25.8,25.6,,,26.0
2018-01-08,10,1577.3,0,29.410161497007987,,30.03503981395943,28.785283180056545,
2018-01-08,10,1577.3,0,27.6,27.6,,,27.6
2018-01-08,11,1586.3,0,30.390053322795875,,31.230631098254086,29.549475547337664,
2018-01-08,11,1586.3,0,29.25,29.4,,,29.1
2018-01-08,12,1662.2,0,31.184901960086286,,32.200446416709056,30.16935750346352,
2018-01-08,12,1662.2,0,30.4,30.5,,,30.3
2018-01-08,13,1683.3,0,31.770556335247974,,32.91501842162331,30.626094248872636,
2018-01-08,13,1683.3,0,30.200000000000003,30.6,,,29.8
2018-01-08,14,1660.9,0,32.129221636447056,,33.352635204218416,30.90580806867569,
2018-01-08,14,1660.9,0,29.6,30.2,,,29.0
2018-01-08,15,1742.9,0,32.25,,33.5,31.0,
2018-01-08,15,1742.9,0,30.05,29.5,,,30.6
2018-01-08,16,1696.8,0,31.72,,32.85333333333333,30.586666666666662,
2018-01-08,16,1696.8,0,29.9,30.0,,,29.8
2018-01-08,17,1688.0,0,31.189999999999998,,32.20666666666666,30.17333333333333,
2018-01-08,17,1688.0,0,29.25,29.4,,,29.1
2018-01-08,18,1696.0,0,30.66,,31.56,29.76,
2018-01-08,18,1696.0,0,28.0,28.2,,,27.8
2018-01-08,19,1716.4,0,30.13,,30.91333333333333,29.346666666666668,
2018-01-08,19,1716.4,0,27.05,27.1,,,27.0
2018-01-08,20,1891.42,0,29.6,,30.266666666666666,28.933333333333334,
2018-01-08,20,1891.42,0,26.75,26.7,,,26.8
2018-01-08,21,1934.93,0,29.07,,29.62,28.52,
2018-01-08,21,1934.93,0,26.5,26.4,,,26.6
2018-01-08,22,2060.3,0,28.54,,28.973333333333333,28.106666666666666,
2018-01-08,22,2060.3,0,26.25,26.1,,,26.4
2018-01-08,23,1918.4,0,28.009999999999998,,28.326666666666668,27.69333333333333,
2018-01-08,23,1918.4,0,25.9,25.8,,,26.0
2018-01-08,24,1761.2,0,27.48,,27.68,27.28,
2018-01-08,24,1761.2,0,25.6,25.4,,,25.8
2018-01-09,1,1827.8,0,25.450000000000003,25.3,,,25.6
2018-01-09,2,1637.4,0,25.5,25.4,,,25.6
2018-01-09,3,1656.75,0,25.25,25.0,,,25.5
2018-01-09,4,1585.8,0,24.950000000000003,24.8,,,25.1
2018-01-09,5,1593.19,0,24.8,24.6,,,25.0
2018-01-09,6,1707.81,0,24.700000000000003,24.6,,,24.8
2018-01-09,7,1664.83,0,24.700000000000003,24.6,,,24.8
2018-01-09,8,1484.53,0,24.9,24.8,,,25.0
2018-01-09,9,1550.09,0,25.450000000000003,25.3,,,25.6
2018-01-09,10,1583.56,0,26.25,26.0,,,26.5
2018-01-09,11,1629.47,0,28.25,28.0,,,28.5
2018-01-09,12,1659.38,0,29.9,30.1,,,29.7
2018-01-09,13,1608.37,0,29.85,30.3,,,29.4
2018-01-09,14,1616.45,0,29.95,30.5,,,29.4
2018-01-09,15,1633.24,0,29.85,30.1,,,29.6
2018-01-09,16,1644.99,0,29.450000000000003,29.6,,,29.3
2018-01-09,17,1659.52,0,28.8,29.0,,,28.6
2018-01-09,18,1653.17,0,27.95,28.0,,,27.9
2018-01-09,19,1764.3,0,27.0,27.0,,,27.0
2018-01-09,20,1712.16,0,26.6,26.5,,,26.7
2018-01-09,21,1762.76,0,26.45,26.4,,,26.5
2018-01-09,22,2015.94,0,26.299999999999997,26.2,,,26.4
2018-01-09,23,1910.1,0,26.0,25.9,,,26.1
2018-01-09,24,1861.05,0,25.7,25.5,,,25.9
2018-01-10,1,1811.9,0,25.6,25.4,,,25.8
2018-01-10,2,1758.84,0,25.65,25.4,,,25.9
2018-01-10,3,1656.77,0,25.4,25.3,,,25.5
2018-01-10,4,1661.5,0,25.25,25.1,,,25.4
2018-01-10,5,1649.16,0,25.1,24.7,,,25.5
2018-01-10,6,1657.88,0,24.85,24.6,,,25.1
2018-01-10,7,1741.98,0,24.8,24.6,,,25.0
2018-01-10,8,1620.15,0,25.2,25.0,,,25.4
2018-01-10,9,1555.3,0,26.15,26.1,,,26.2
2018-01-10,10,1557.29,0,27.65,27.6,,,27.7
2018-01-10,11,1608.28,0,28.700000000000003,28.8,,,28.6
2018-01-10,12,1632.96,0,29.75,29.7,,,29.8
2018-01-10,13,1611.2,0,29.75,29.9,,,29.6
2018-01-10,14,1643.57,0,29.55,29.6,,,29.5
2018-01-10,15,1658.0,0,29.15,29.7,,,28.6
2018-01-10,16,1649.61,0,29.45,29.4,,,29.5
2018-01-10,17,1664.01,0,28.7,29.0,,,28.4
2018-01-10,18,1786.17,0,27.95,28.0,,,27.9
2018-01-10,19,1702.6,0,26.85,26.7,,,27.0
2018-01-10,20,1934.54,0,26.5,26.4,,,26.6
2018-01-10,21,2042.61,0,26.3,26.1,,,26.5
2018-01-10,22,2031.29,0,26.15,26.0,,,26.3
2018-01-10,23,1979.88,0,25.950000000000003,25.8,,,26.1
2018-01-10,24,1856.21,0,25.75,25.5,,,26.0
2018-01-11,1,1769.16,0,26.76666666666667,,26.76666666666667,,
2018-01-11,1,1769.16,0,25.450000000000003,25.1,,,25.8
2018-01-11,2,1748.63,0,26.07333333333333,,26.07333333333333,,
2018-01-11,2,1748.63,0,25.3,25.0,,,25.6
2018-01-11,3,1674.74,0,25.380000000000003,,25.380000000000003,,
2018-01-11,3,1674.74,0,24.950000000000003,24.6,,,25.3
2018-01-11,4,1658.65,0,24.686666666666667,,24.686666666666667,,
2018-01-11,4,1658.65,0,24.6,24.2,,,25.0
2018-01-11,5,1638.4,0,23.99333333333333,,23.99333333333333,,
2018-01-11,5,1638.4,0,24.450000000000003,24.1,,,24.8
2018-01-11,6,1645.2,0,23.3,,23.3,,
2018-01-11,6,1645.2,0,24.35,24.1,,,24.6
2018-01-11,7,1666.37,0,25.10594104773608,,25.10594104773608,,
2018-01-11,7,1666.37,0,24.25,24.0,,,24.5
2018-01-11,8,1580.92,0,26.85700949058696,,26.85700949058696,,
2018-01-11,8,1580.92,0,24.9,24.8,,,25.0
2018-01-11,9,1506.11,0,28.5,,28.5,,
2018-01-11,9,1506.11,0,25.85,25.6,,,26.1
2018-01-11,10,1545.99,0,29.98499114074001,,29.98499114074001,,
2018-01-11,10,1545.99,0,27.6,27.3,,,27.9
2018-01-11,11,1564.8,0,31.266862208437374,,31.266862208437374,,
2018-01-11,11,1564.8,0,29.2,29.0,,,29.4
2018-01-11,12,1560.81,0,32.30666419935817,,32.30666419935817,,
2018-01-11,12,1560.81,0,30.049999999999997,29.9,,,30.2
2018-01-11,13,1575.17,0,33.07280325617345,,33.07280325617345,,
2018-01-11,13,1575.17,0,29.95,30.0,,,29.9
2018-01-11,14,1578.39,0,33.542000631326964,,33.542000631326964,,
2018-01-11,14,1578.39,0,29.7,30.2,,,29.2
2018-01-11,15,1588.32,0,33.7,,33.7,,
2018-01-11,15,1588.32,0,29.4,29.4,,,29.4
2018-01-11,16,1617.61,0,33.00666666666667,,33.00666666666667,,
2018-01-11,16,1617.61,0,29.5,29.2,,,29.8
2018-01-11,17,1611.89,0,32.31333333333333,,32.31333333333333,,
2018-01-11,17,1611.89,0,29.0,29.0,,,29.0
2018-01-11,18,1668.8,0,31.620000000000005,,31.620000000000005,,
2018-01-11,18,1668.8,0,27.95,27.9,,,28.0
2018-01-11,19,1691.86,0,30.92666666666667,,30.92666666666667,,
2018-01-11,19,1691.86,0,27.0,27.0,,,27.0
2018-01-11,20,1902.67,0,30.23333333333333,,30.23333333333333,,
2018-01-11,20,1902.67,0,26.6,26.5,,,26.7
2018-01-11,21,2005.98,0,29.540000000000003,,29.540000000000003,,
2018-01-11,21,2005.98,0,26.35,26.2,,,26.5
2018-01-11,22,2017.2,0,28.846666666666668,,28.846666666666668,,
2018-01-11,22,2017.2,0,26.25,26.0,,,26.5
2018-01-11,23,1852.04,0,28.153333333333336,,28.153333333333336,,
2018-01-11,23,1852.04,0,26.0,25.8,,,26.2
2018-01-11,24,1866.58,0,27.46,,27.46,,
2018-01-11,24,1866.58,0,25.75,25.5,,,26.0
2018-01-12,1,1795.1,0,26.75,,26.866666666666667,26.633333333333333,
2018-01-12,1,1795.1,0,25.35,25.0,,,25.7
2018-01-12,2,1720.17,0,26.1,,26.05333333333333,26.14666666666667,
2018-01-12,2,1720.17,0,25.0,24.6,,,25.4
2018-01-12,3,1729.75,0,25.45,,25.24,25.66,
2018-01-12,3,1729.75,0,24.549999999999997,24.2,,,24.9
2018-01-12,4,1666.19,0,24.799999999999997,,24.426666666666662,25.17333333333333,
2018-01-12,4,1666.19,0,24.3,24.1,,,24.5
2018-01-12,5,1638.59,0,24.15,,23.613333333333333,24.686666666666667,
2018-01-12,5,1638.59,0,24.2,24.0,,,24.4
2018-01-12,6,1638.11,0,23.5,,22.8,24.2,
2018-01-12,6,1638.11,0,24.0,23.8,,,24.2
2018-01-12,7,1685.12,0,25.19306973225257,,24.91850776753655,25.467631696968592,
2018-01-12,7,1685.12,0,23.9,23.8,,,24.0
2018-01-12,8,1576.53,0,26.83469639742527,,26.97264574857316,26.69674704627738,
2018-01-12,8,1576.53,0,24.25,24.1,,,24.4
2018-01-12,9,1517.27,0,28.375,,28.9,27.85,
2018-01-12,9,1517.27,0,25.25,25.0,,,25.5
2018-01-12,10,1555.6,0,29.767179194443756,,30.64200883817578,28.89234955071173,
2018-01-12,10,1555.6,0,26.950000000000003,26.8,,,27.1
2018-01-12,11,1579.12,0,30.968933320410034,,32.14574220605153,29.79212443476854,
2018-01-12,11,1579.12,0,28.7,28.5,,,28.9
2018-01-12,12,1544.16,0,31.943747686898277,,33.36550992617015,30.521985447626403,
2018-01-12,12,1544.16,0,30.299999999999997,30.2,,,30.4
2018-01-12,13,1575.47,0,32.662003052662605,,34.26424997358808,31.05975613173713,
2018-01-12,13,1575.47,0,31.2,31.0,,,31.4
2018-01-12,14,1574.33,0,33.10187559186903,,34.81465458674894,31.38909659698912,
2018-01-12,14,1574.33,0,32.0,32.0,,,32.0
2018-01-12,15,1581.51,0,33.25,,35.0,31.5,
2018-01-12,15,1581.51,0,31.35,31.7,,,31.0
2018-01-12,16,1627.68,0,32.6,,34.18666666666667,31.013333333333332,
2018-01-12,16,1627.68,0,29.65,29.8,,,29.5
2018-01-12,17,1714.88,0,31.950000000000003,,33.373333333333335,30.526666666666667,
2018-01-12,17,1714.88,0,28.5,28.5,,,28.5
2018-01-12,18,1688.48,0,31.3,,32.56,30.04,
2018-01-12,18,1688.48,0,27.7,27.5,,,27.9
2018-01-12,19,1599.51,0,30.65,,31.74666666666667,29.55333333333333,
2018-01-12,19,1599.51,0,26.95,26.9,,,27.0
2018-01-12,20,1970.93,0,30.0,,30.933333333333337,29.066666666666663,
2018-01-12,20,1970.93,0,26.55,26.5,,,26.6
2018-01-12,21,2005.09,0,29.35,,30.12,28.58,
2018-01-12,21,2005.09,0,26.25,26.1,,,26.4
2018-01-12,22,2031.37,0,28.7,,29.306666666666665,28.093333333333334,
2018-01-12,22,2031.37,0,26.1,25.9,,,26.3
2018-01-12,23,1946.46,0,28.049999999999997,,28.49333333333333,27.606666666666666,
2018-01-12,23,1946.46,0,25.8,25.6,,,26.0
2018-01-12,24,1875.96,0,27.4,,27.68,27.12,
2018-01-12,24,1875.96,0,25.5,25.2,,,25.8
2018-01-13,1,1795.42,0,25.200000000000003,,25.200000000000003,,
2018-01-13,1,1795.42,0,25.0,24.6,,,25.4
2018-01-13,2,1734.05,0,24.16,,24.16,,
2018-01-13,2,1734.05,0,24.7,24.4,,,25.0
2018-01-13,3,1673.58,0,23.12,,23.12,,
2018-01-13,3,1673.58,0,24.25,23.9,,,24.6
2018-01-13,4,1628.43,0,22.08,,22.08,,
2018-01-13,4,1628.43,0,23.95,23.5,,,24.4
2018-01-13,5,1639.23,0,21.04,,21.04,,
2018-01-13,5,1639.23,0,23.65,23.3,,,24.0
2018-01-13,6,1654.05,0,20.0,,20.0,,
2018-01-13,6,1654.05,0,23.4,23.0,,,23.8
2018-01-13,7,1622.73,0,22.708911571604112,,22.708911571604112,,
2018-01-13,7,1622.73,0,23.15,22.8,,,23.5
2018-01-13,8,1595.23,0,25.33551423588043,,25.33551423588043,,
2018-01-13,8,1595.23,0,23.3,23.0,,,23.6
2018-01-13,9,1453.56,0,27.8,,27.8,,
2018-01-13,9,1453.56,0,24.75,24.5,,,25.0
2018-01-13,10,1450.57,0,30.02748671111001,,30.02748671111001,,
2018-01-13,10,1450.57,0,26.75,26.4,,,27.1
2018-01-13,11,1470.19,0,31.950293312656058,,31.950293312656058,,
2018-01-13,11,1470.19,0,28.950000000000003,28.8,,,29.1
2018-01-13,12,1624.59,0,33.50999629903724,,33.50999629903724,,
2018-01-13,12,1624.59,0,30.95,30.9,,,31.0
2018-01-13,13,1363.25,0,34.65920488426017,,34.65920488426017,,
2018-01-13,13,1363.25,0,31.15,31.8,,,30.5
2018-01-13,14,1429.44,0,35.36300094699045,,35.36300094699045,,
2018-01-13,14,1429.44,0,30.65,31.4,,,29.9
2018-01-13,15,1484.98,0,35.6,,35.6,,
2018-01-13,15,1484.98,0,29.25,29.5,,,29.0
2018-01-13,16,1498.98,0,34.56,,34.56,,
2018-01-13,16,1498.98,0,29.3,29.1,,,29.5
2018-01-13,17,1535.87,0,33.52,,33.52,,
2018-01-13,17,1535.87,0,28.8,28.6,,,29.0
2018-01-13,18,1512.75,0,32.480000000000004,,32.480000000000004,,
2018-01-13,18,1512.75,0,27.95,27.9,,,28.0
2018-01-13,19,1623.82,0,31.44,,31.44,,
2018-01-13,19,1623.82,0,26.9,26.8,,,27.0
2018-01-13,20,1843.43,0,30.4,,30.4,,
2018-01-13,20,1843.43,0,26.5,26.5,,,26.5
2018-01-13,21,1979.83,0,29.36,,29.36,,
2018-01-13,21,1979.83,0,26.15,26.1,,,26.2
2018-01-13,22,1984.36,0,28.32,,28.32,,
2018-01-13,22,1984.36,0,25.9,25.8,,,26.0
2018-01-13,23,1929.67,0,27.28,,27.28,,
2018-01-13,23,1929.67,0,25.7,25.5,,,25.9
2018-01-13,24,1812.74,0,26.24,,26.24,,
2018-01-13,24,1812.74,0,25.3,25.0,,,25.6
2018-01-14,1,1833.71,0,24.433333333333334,,24.433333333333334,,
2018-01-14,1,1833.71,0,25.1,24.7,,,25.5
2018-01-14,2,1672.5,0,23.426666666666662,,23.426666666666662,,
2018-01-14,2,1672.5,0,25.049999999999997,24.7,,,25.4
2018-01-14,3,1703.59,0,22.42,,22.42,,
2018-01-14,3,1703.59,0,24.7,24.4,,,25.0
2018-01-14,4,1620.44,0,21.41333333333333,,21.41333333333333,,
2018-01-14,4,1620.44,0,24.35,24.1,,,24.6
2018-01-14,5,1581.74,0,20.406666666666663,,20.406666666666663,,
2018-01-14,5,1581.74,0,24.15,23.9,,,24.4
2018-01-14,6,1572.74,0,19.4,,19.4,,
2018-01-14,6,1572.74,0,24.05,24.0,,,24.1
2018-01-14,7,1526.33,0,22.022087482770647,,22.022087482770647,,
2018-01-14,7,1526.33,0,24.2,24.2,,,24.2
2018-01-14,8,1486.1,0,24.564504164217595,,24.564504164217595,,
2018-01-14,8,1486.1,0,24.35,24.2,,,24.5
2018-01-14,9,1455.9,0,26.95,,26.95,,
2018-01-14,9,1455.9,0,25.25,25.0,,,25.5
2018-01-14,10,1394.77,0,29.106092906266746,,29.106092906266746,,
2018-01-14,10,1394.77,0,26.8,26.5,,,27.1
2018-01-14,11,1364.6,0,30.967271091096567,,30.967271091096567,,
2018-01-14,11,1364.6,0,28.8,28.5,,,29.1
2018-01-14,12,1329.47,0,32.47698359714502,,32.47698359714502,,
2018-01-14,12,1329.47,0,30.5,30.4,,,30.6
2018-01-14,13,1360.65,0,33.589358573867216,,33.589358573867216,,
2018-01-14,13,1360.65,0,31.450000000000003,31.6,,,31.3
2018-01-14,14,1407.04,0,34.27059707048434,,34.27059707048434,,
2018-01-14,14,1407.04,0,31.55,32.1,,,31.0
2018-01-14,15,1544.22,0,34.5,,34.5,,
2018-01-14,15,1544.22,0,29.75,30.0,,,29.5
2018-01-14,16,1454.32,0,33.49333333333333,,33.49333333333333,,
2018-01-14,16,1454.32,0,29.95,29.9,,,30.0
2018-01-14,17,1481.82,0,32.486666666666665,,32.486666666666665,,
2018-01-14,17,1481.82,0,29.450000000000003,29.3,,,29.6
2018-01-14,18,1510.72,0,31.48,,31.48,,
2018-01-14,18,1510.72,0,28.15,28.2,,,28.1
2018-01-14,19,1536.85,0,30.473333333333336,,30.473333333333336,,
2018-01-14,19,1536.85,0,27.2,27.2,,,27.2
2018-01-14,20,1858.44,0,29.46666666666667,,29.46666666666667,,
2018-01-14,20,1858.44,0,26.799999999999997,26.7,,,26.9
2018-01-14,21,1911.99,0,28.46,,28.46,,
2018-01-14,21,1911.99,0,26.5,26.5,,,26.5
2018-01-14,22,1940.05,0,27.453333333333333,,27.453333333333333,,
2018-01-14,22,1940.05,0,26.299999999999997,26.2,,,26.4
2018-01-14,23,1871.15,0,26.446666666666665,,26.446666666666665,,
2018-01-14,23,1871.15,0,26.049999999999997,25.9,,,26.2
2018-01-14,24,1728.8,0,25.44,,25.44,,
2018-01-14,24,1728.8,0,25.8,25.6,,,26.0
2018-01-15,1,1640.04,0,24.700000000000003,,24.700000000000003,,
2018-01-15,1,1640.04,0,25.35,25.0,,,25.7
2018-01-15,2,1582.88,0,23.880000000000003,,23.880000000000003,,
2018-01-15,2,1582.88,0,25.3,25.0,,,25.6
2018-01-15,3,1551.79,0,23.06,,23.06,,
2018-01-15,3,1551.79,0,25.0,24.6,,,25.4
2018-01-15,4,1527.45,0,22.24,,22.24,,
2018-01-15,4,1527.45,0,24.95,24.5,,,25.4
2018-01-15,5,1525.08,0,21.42,,21.42,,
2018-01-15,5,1525.08,0,24.75,24.5,,,25.0
2018-01-15,6,1554.28,0,20.6,,20.6,,
2018-01-15,6,1554.28,0,24.6,24.5,,,24.7
2018-01-15,7,1668.17,0,22.735872585303245,,22.735872585303245,,
2018-01-15,7,1668.17,0,24.55,24.5,,,24.6
2018-01-15,8,1568.65,0,24.80684776290573,,24.80684776290573,,
2018-01-15,8,1568.65,0,24.799999999999997,24.7,,,24.9
2018-01-15,9,1462.16,0,26.75,,26.75,,
2018-01-15,9,1462.16,0,25.65,25.5,,,25.8
2018-01-15,10,1508.21,0,28.506287599144432,,28.506287599144432,,
2018-01-15,10,1508.21,0,27.2,27.0,,,27.4
2018-01-15,11,1526.14,0,30.02234665036343,,30.02234665036343,,
2018-01-15,11,1526.14,0,28.75,28.5,,,29.0
2018-01-15,12,1543.84,0,31.2521124665486,,31.2521124665486,,
2018-01-15,12,1543.84,0,30.3,30.1,,,30.5
2018-01-15,13,1577.48,0,32.15821923566667,,32.15821923566667,,
2018-01-15,13,1577.48,0,29.9,30.0,,,29.8
2018-01-15,14,1545.61,0,32.71313536205016,,32.71313536205016,,
2018-01-15,14,1545.61,0,30.3,30.5,,,30.1
2018-01-15,15,1578.26,0,32.9,,32.9,,
2018-01-15,15,1578.26,0,30.1,30.0,,,30.2
2018-01-15,16,1593.36,0,32.08,,32.08,,
2018-01-15,16,1593.36,0,29.6,29.9,,,29.3
2018-01-15,17,1652.34,0,31.26,,31.26,,
2018-01-15,17,1652.34,0,28.95,29.0,,,28.9
2018-01-15,18,1673.86,0,30.44,,30.44,,
2018-01-15,18,1673.86,0,28.1,28.1,,,28.1
2018-01-15,19,1716.47,0,29.62,,29.62,,
2018-01-15,19,1716.47,0,27.2,27.2,,,27.2
2018-01-15,20,1935.91,0,28.8,,28.8,,
2018-01-15,20,1935.91,0,26.85,26.7,,,27.0
2018-01-15,21,1987.15,0,27.98,,27.98,,
2018-01-15,21,1987.15,0,26.65,26.5,,,26.8
2018-01-15,22,2001.87,0,27.16,,27.16,,
2018-01-15,22,2001.87,0,26.450000000000003,26.3,,,26.6
2018-01-15,23,1824.7,0,26.34,,26.34,,
2018-01-15,23,1824.7,0,26.3,26.1,,,26.5
2018-01-15,24,1825.13,0,25.52,,25.52,,
2018-01-15,24,1825.13,0,26.15,26.0,,,26.3
2018-01-16,1,1755.71,0,25.9,,25.9,,
2018-01-16,1,1755.71,0,25.75,25.5,,,26.0
2018-01-16,2,1613.41,0,25.24,,25.24,,
2018-01-16,2,1613.41,0,25.5,25.3,,,25.7
2018-01-16,3,1671.79,0,24.58,,24.58,,
2018-01-16,3,1671.79,0,25.5,25.4,,,25.6
2018-01-16,4,1634.68,0,23.92,,23.92,,
2018-01-16,4,1634.68,0,25.4,25.2,,,25.6
2018-01-16,5,1623.48,0,23.26,,23.26,,
2018-01-16,5,1623.48,0,25.35,25.1,,,25.6
2018-01-16,6,1652.58,0,22.6,,22.6,,
2018-01-16,6,1652.58,0,25.15,24.9,,,25.4
2018-01-16,7,1735.35,0,24.31911695890261,,24.31911695890261,,
2018-01-16,7,1735.35,0,24.85,24.5,,,25.2
2018-01-16,8,1601.69,0,25.98599941892412,,25.98599941892412,,
2018-01-16,8,1601.69,0,24.9,24.6,,,25.2
2018-01-16,9,1498.9,0,27.55,,27.55,,
2018-01-16,9,1498.9,0,26.049999999999997,25.9,,,26.2
2018-01-16,10,1555.36,0,28.96359733589674,,28.96359733589674,,
2018-01-16,10,1555.36,0,27.6,27.4,,,27.8
2018-01-16,11,1556.87,0,30.18383998687788,,30.18383998687788,,
2018-01-16,11,1556.87,0,29.1,29.0,,,29.2
2018-01-16,12,1576.52,0,31.17365149746594,,31.17365149746594,,
2018-01-16,12,1576.52,0,30.05,30.0,,,30.1
2018-01-16,13,1607.9,0,31.90295694578049,,31.90295694578049,,
2018-01-16,13,1607.9,0,30.2,30.5,,,29.9
2018-01-16,14,1593.24,0,32.34959675482086,,32.34959675482086,,
2018-01-16,14,1593.24,0,29.8,29.6,,,30.0
2018-01-16,15,1648.78,0,32.5,,32.5,,
2018-01-16,15,1648.78,0,30.049999999999997,29.7,,,30.4
2018-01-16,16,1630.77,0,31.84,,31.84,,
2018-01-16,16,1630.77,0,29.2,29.0,,,29.4
2018-01-16,17,1643.6,0,31.18,,31.18,,
2018-01-16,17,1643.6,0,28.6,28.5,,,28.7
2018-01-16,18,1669.85,0,30.52,,30.52,,
2018-01-16,18,1669.85,0,27.95,27.9,,,28.0
2018-01-16,19,1693.95,0,29.86,,29.86,,
2018-01-16,19,1693.95,0,27.15,27.1,,,27.2
2018-01-16,20,1968.29,0,29.200000000000003,,29.200000000000003,,
2018-01-16,20,1968.29,0,26.9,26.8,,,27.0
2018-01-16,21,2012.41,0,28.54,,28.54,,
2018-01-16,21,2012.41,0,26.65,26.5,,,26.8
2018-01-16,22,2034.05,0,27.880000000000003,,27.880000000000003,,
2018-01-16,22,2034.05,0,26.5,26.4,,,26.6
2018-01-16,23,1942.85,0,27.22,,27.22,,
2018-01-16,23,1942.85,0,26.2,26.0,,,26.4
2018-01-16,24,1855.93,0,26.56,,26.56,,
2018-01-16,24,1855.93,0,25.95,25.7,,,26.2
2018-01-17,1,1805.73,0,26.46666666666667,,26.766666666666666,26.166666666666668,
2018-01-17,1,1805.73,0,25.35,25.0,,,25.7
2018-01-17,2,1691.74,0,25.96333333333333,,26.19333333333333,25.73333333333333,
2018-01-17,2,1691.74,0,25.25,25.0,,,25.5
2018-01-17,3,1657.34,0,25.46,,25.62,25.3,
2018-01-17,3,1657.34,0,24.95,24.7,,,25.2
2018-01-17,4,1619.94,0,24.956666666666667,,25.046666666666667,24.866666666666667,
2018-01-17,4,1619.94,0,24.75,24.5,,,25.0
2018-01-17,5,1611.15,0,24.453333333333333,,24.473333333333333,24.433333333333334,
2018-01-17,5,1611.15,0,24.5,24.2,,,24.8
2018-01-17,6,1646.55,0,23.95,,23.9,24.0,
2018-01-17,6,1646.55,0,24.3,24.0,,,24.6
2018-01-17,7,1739.83,0,25.261043741385322,,25.3933743279356,25.128713154835047,
2018-01-17,7,1739.83,0,24.049999999999997,23.7,,,24.4
2018-01-17,8,1542.07,0,26.532252082108798,,26.841373232600752,26.223130931616847,
2018-01-17,8,1542.07,0,24.3,24.0,,,24.6
2018-01-17,9,1490.93,0,27.725,,28.2,27.25,
2018-01-17,9,1490.93,0,25.950000000000003,25.6,,,26.3
2018-01-17,10,1552.51,0,28.80304645313337,,29.42797344330424,28.178119462962503,
2018-01-17,10,1552.51,0,27.85,27.6,,,28.1
2018-01-17,11,1530.54,0,29.73363554554828,,30.48798221082321,28.97928888027336,
2018-01-17,11,1530.54,0,29.55,29.6,,,29.5
2018-01-17,12,1547.64,0,30.48849179857251,,31.347818472546173,29.62916512459885,
2018-01-17,12,1547.64,0,30.75,31.0,,,30.5
2018-01-17,13,1575.47,0,31.044679286933608,,31.98135653875881,30.10800203510841,
2018-01-17,13,1575.47,0,30.15,30.5,,,29.8
2018-01-17,14,1607.81,0,31.385298535242175,,32.36934667590499,30.401250394579357,
2018-01-17,14,1607.81,0,30.5,30.8,,,30.2
2018-01-17,15,1636.11,0,31.5,,32.5,30.5,
2018-01-17,15,1636.11,0,30.35,31.0,,,29.7
2018-01-17,16,1651.14,0,30.996666666666663,,31.926666666666662,30.066666666666663,
2018-01-17,16,1651.14,0,29.85,29.6,,,30.1
2018-01-17,17,1766.83,0,30.493333333333332,,31.35333333333333,29.633333333333333,
2018-01-17,17,1766.83,0,29.65,29.8,,,29.5
2018-01-17,18,1702.53,0,29.990000000000002,,30.78,29.2,
2018-01-17,18,1702.53,0,28.85,29.2,,,28.5
2018-01-17,19,1773.21,0,29.486666666666665,,30.206666666666667,28.766666666666666,
2018-01-17,19,1773.21,0,27.75,28.0,,,27.5
2018-01-17,20,1956.28,0,28.983333333333334,,29.633333333333333,28.333333333333336,
2018-01-17,20,1956.28,0,27.1,27.2,,,27.0
2018-01-17,21,2020.57,0,28.479999999999997,,29.06,27.9,
2018-01-17,21,2020.57,0,26.95,27.0,,,26.9
2018-01-17,22,2044.0,0,27.976666666666667,,28.486666666666665,27.46666666666667,
2018-01-17,22,2044.0,0,26.700000000000003,26.6,,,26.8
2018-01-17,23,1969.19,0,27.47333333333333,,27.91333333333333,27.03333333333333,
2018-01-17,23,1969.19,0,26.5,26.4,,,26.6
2018-01-17,24,1855.81,0,26.97,,27.34,26.6,
2018-01-17,24,1855.81,0,26.3,26.1,,,26.5
2018-01-18,1,1896.41,0,27.1,,27.666666666666668,26.53333333333333,
2018-01-18,1,1896.41,0,25.5,25.1,,,25.9
2018-01-18,2,1733.19,0,26.53,,26.933333333333334,26.12666666666667,
2018-01-18,2,1733.19,0,25.3,25.0,,,25.6
2018-01-18,3,1686.53,0,25.96,,26.2,25.72,
2018-01-18,3,1686.53,0,24.85,24.5,,,25.2
2018-01-18,4,1652.38,0,25.39,,25.466666666666665,25.313333333333333,
2018-01-18,4,1652.38,0,24.7,24.4,,,25.0
2018-01-18,5,1653.45,0,24.819999999999997,,24.73333333333333,24.906666666666663,
2018-01-18,5,1653.45,0,24.5,24.1,,,24.9
2018-01-18,6,1685.57,0,24.25,,24.0,24.5,
2018-01-18,6,1685.57,0,24.25,23.9,,,24.6
2018-01-18,7,1704.73,0,25.734691919052253,,25.910129954336234,25.559253883768275,
2018-01-18,7,1704.73,0,24.1,23.7,,,24.5
2018-01-18,8,1597.1,0,27.174272225434468,,27.762221576582355,26.58632287428658,
2018-01-18,8,1597.1,0,24.3,24.0,,,24.6
2018-01-18,9,1532.11,0,28.525,,29.5,27.55,
2018-01-18,9,1532.11,0,25.8,25.6,,,26.0
2018-01-18,10,1515.58,0,29.74583406281991,,31.070663706551933,28.42100441908789,
2018-01-18,10,1515.58,0,27.8,27.8,,,27.8
2018-01-18,11,1574.56,0,30.799679988667265,,32.42648887430876,29.172871103025766,
2018-01-18,11,1574.56,0,29.5,29.5,,,29.5
2018-01-18,12,1590.06,0,31.65451720235695,,33.52627944162882,29.782754963085075,
2018-01-18,12,1590.06,0,30.799999999999997,30.9,,,30.7
2018-01-18,13,1631.89,0,32.28437190771952,,34.336618828644994,30.23212498679404,
2018-01-18,13,1631.89,0,31.25,31.5,,,31.0
2018-01-18,14,1602.54,0,32.67010628825438,,34.83288528313429,30.50732729337447,
2018-01-18,14,1602.54,0,31.0,31.1,,,30.9
2018-01-18,15,1639.19,0,32.8,,35.0,30.6,
2018-01-18,15,1639.19,0,30.1,30.2,,,30.0
2018-01-18,16,1650.78,0,32.23,,34.266666666666666,30.19333333333333,
2018-01-18,16,1650.78,0,29.9,29.9,,,29.9
2018-01-18,17,1688.85,0,31.66,,33.53333333333333,29.78666666666667,
2018-01-18,17,1688.85,0,29.2,29.5,,,28.9
2018-01-18,18,1707.93,0,31.09,,32.8,29.380000000000003,
2018-01-18,18,1707.93,0,28.3,28.5,,,28.1
2018-01-18,19,1854.53,0,30.52,,32.06666666666666,28.973333333333336,
2018-01-18,19,1854.53,0,27.45,27.5,,,27.4
2018-01-18,20,1960.85,0,29.950000000000003,,31.333333333333336,28.56666666666667,
2018-01-18,20,1960.85,0,26.95,26.9,,,27.0
2018-01-18,21,2056.13,0,29.380000000000003,,30.6,28.16,
2018-01-18,21,2056.13,0,26.9,26.8,,,27.0
2018-01-18,22,2048.54,0,28.81,,29.866666666666667,27.75333333333333,
2018-01-18,22,2048.54,0,26.700000000000003,26.6,,,26.8
2018-01-18,23,1981.24,0,28.240000000000002,,29.133333333333333,27.346666666666668,
2018-01-18,23,1981.24,0,26.5,26.4,,,26.6
2018-01-18,24,1877.33,0,27.67,,28.4,26.94,
2018-01-18,24,1877.33,0,26.2,26.0,,,26.4
2018-01-19,1,1802.31,0,27.633333333333333,,27.633333333333333,,
2018-01-19,1,1802.31,0,25.75,25.5,,,26.0
2018-01-19,2,1745.28,0,26.886666666666667,,26.886666666666667,,
2018-01-19,2,1745.28,0,25.75,25.5,,,26.0
2018-01-19,3,1699.92,0,26.14,,26.14,,
2018-01-19,3,1699.92,0,25.55,25.3,,,25.8
2018-01-19,4,1679.69,0,25.39333333333333,,25.39333333333333,,
2018-01-19,4,1679.69,0,25.25,25.0,,,25.5
2018-01-19,5,1662.96,0,24.646666666666665,,24.646666666666665,,
2018-01-19,5,1662.96,0,24.9,24.6,,,25.2
2018-01-19,6,1703.62,0,23.9,,23.9,,
2018-01-19,6,1703.62,0,24.75,24.5,,,25.0
2018-01-19,7,1764.57,0,25.844859589869618,,25.844859589869618,,
2018-01-19,7,1764.57,0,24.75,24.5,,,25.0
2018-01-19,8,1628.65,0,27.73062560524749,,27.73062560524749,,
2018-01-19,8,1628.65,0,25.25,25.0,,,25.5
2018-01-19,9,1520.61,0,29.5,,29.5,,
2018-01-19,9,1520.61,0,25.9,25.7,,,26.1
2018-01-19,10,1554.14,0,31.09922122848924,,31.09922122848924,,
2018-01-19,10,1554.14,0,27.799999999999997,27.4,,,28.2
2018-01-19,11,1622.84,0,32.47969776293255,,32.47969776293255,,
2018-01-19,11,1622.84,0,29.75,29.4,,,30.1
2018-01-19,12,1618.99,0,33.599484522385715,,33.599484522385715,,
2018-01-19,12,1618.99,0,31.15,30.9,,,31.4
2018-01-19,13,1638.54,0,34.424557352802175,,34.424557352802175,,
2018-01-19,13,1638.54,0,31.049999999999997,31.2,,,30.9
2018-01-19,14,1611.96,0,34.92984683373673,,34.92984683373673,,
2018-01-19,14,1611.96,0,31.2,31.4,,,31.0
2018-01-19,15,1638.69,0,35.1,,35.1,,
2018-01-19,15,1638.69,0,29.5,29.5,,,29.5
2018-01-19,16,1635.74,0,34.35333333333334,,34.35333333333334,,
2018-01-19,16,1635.74,0,29.950000000000003,29.8,,,30.1
2018-01-19,17,1680.83,0,33.60666666666667,,33.60666666666667,,
2018-01-19,17,1680.83,0,29.55,29.5,,,29.6
2018-01-19,18,1687.49,0,32.86,,32.86,,
2018-01-19,18,1687.49,0,28.5,28.5,,,28.5
2018-01-19,19,1683.29,0,32.11333333333334,,32.11333333333334,,
2018-01-19,19,1683.29,0,27.299999999999997,27.2,,,27.4
2018-01-19,20,1833.86,0,31.366666666666667,,31.366666666666667,,
2018-01-19,20,1833.86,0,26.9,26.8,,,27.0
2018-01-19,21,2016.78,0,30.62,,30.62,,
2018-01-19,21,2016.78,0,26.7,26.5,,,26.9
2018-01-19,22,2024.3,0,29.87333333333333,,29.87333333333333,,
2018-01-19,22,2024.3,0,26.450000000000003,26.3,,,26.6
2018-01-19,23,1975.71,0,29.126666666666665,,29.126666666666665,,
2018-01-19,23,1975.71,0,26.2,26.0,,,26.4
2018-01-19,24,1855.51,0,28.38,,28.38,,
2018-01-19,24,1855.51,0,26.0,25.8,,,26.2
2018-01-20,1,1789.2,0,25.8,25.5,,,26.1
2018-01-20,2,1753.8,0,25.8,25.5,,,26.1
2018-01-20,3,1608.6,0,25.5,25.2,,,25.8
2018-01-20,4,1657.8,0,25.35,25.1,,,25.6
2018-01-20,5,1665.4,0,25.35,25.2,,,25.5
2018-01-20,6,1669.9,0,25.3,25.1,,,25.5
2018-01-20,7,1631.9,0,25.3,25.1,,,25.5
2018-01-20,8,1503.9,0,25.6,25.5,,,25.7
2018-01-20,9,1504.7,0,26.5,26.3,,,26.7
2018-01-20,10,1497.4,0,27.9,27.7,,,28.1
2018-01-20,11,1514.4,0,29.55,29.3,,,29.8
2018-01-20,12,1519.5,0,30.9,30.8,,,31.0
2018-01-20,13,1445.4,0,30.1,30.2,,,30.0
2018-01-20,14,1480.5,0,30.299999999999997,30.2,,,30.4
2018-01-20,15,1493.1,0,29.8,30.0,,,29.6
2018-01-20,16,1527.7,0,29.95,29.5,,,30.4
2018-01-20,17,1597.7,0,29.5,29.5,,,29.5
2018-01-20,18,1646.9,0,28.6,28.6,,,28.6
2018-01-20,19,1621.9,0,27.45,27.4,,,27.5
2018-01-20,20,1876.71,0,26.95,26.9,,,27.0
2018-01-20,21,1947.1,0,26.75,26.6,,,26.9
2018-01-20,22,2000.4,0,26.6,26.4,,,26.8
2018-01-20,23,1985.6,0,26.3,26.1,,,26.5
2018-01-20,24,1861.9,0,26.2,26.0,,,26.4
2018-01-21,1,1764.6,0,27.23333333333333,,27.23333333333333,,
2018-01-21,1,1764.6,0,25.85,25.6,,,26.1
2018-01-21,2,1685.51,0,26.506666666666668,,26.506666666666668,,
2018-01-21,2,1685.51,0,25.75,25.5,,,26.0
2018-01-21,3,1643.43,0,25.78,,25.78,,
2018-01-21,3,1643.43,0,25.65,25.5,,,25.8
2018-01-21,4,1612.02,0,25.05333333333333,,25.05333333333333,,
2018-01-21,4,1612.02,0,25.65,25.5,,,25.8
2018-01-21,5,1602.95,0,24.326666666666668,,24.326666666666668,,
2018-01-21,5,1602.95,0,25.5,25.4,,,25.6
2018-01-21,6,1615.63,0,23.6,,23.6,,
2018-01-21,6,1615.63,0,25.3,25.1,,,25.5
2018-01-21,7,1617.54,0,25.492765136569545,,25.492765136569545,,
2018-01-21,7,1617.54,0,24.85,24.6,,,25.1
2018-01-21,8,1409.42,0,27.32801956224979,,27.32801956224979,,
2018-01-21,8,1409.42,0,25.049999999999997,24.7,,,25.4
2018-01-21,9,1447.64,0,29.05,,29.05,,
2018-01-21,9,1447.64,0,26.2,25.9,,,26.5
2018-01-21,10,1409.08,0,30.60638494558328,,30.60638494558328,,
2018-01-21,10,1409.08,0,27.85,27.5,,,28.2
2018-01-21,11,1350.68,0,31.94988442999686,,31.94988442999686,,
2018-01-21,11,1350.68,0,29.65,29.3,,,30.0
2018-01-21,12,1357.39,0,33.03967690125038,,33.03967690125038,,
2018-01-21,12,1357.39,0,30.950000000000003,30.8,,,31.1
2018-01-21,13,1409.09,0,33.8426495665664,,33.8426495665664,,
2018-01-21,13,1409.09,0,31.5,31.8,,,31.2
2018-01-21,14,1408.52,0,34.33440450783307,,34.33440450783307,,
2018-01-21,14,1408.52,0,31.4,31.7,,,31.1
2018-01-21,15,1467.42,0,34.5,,34.5,,
2018-01-21,15,1467.42,0,30.45,30.9,,,30.0
2018-01-21,16,1481.5,0,33.77333333333333,,33.77333333333333,,
2018-01-21,16,1481.5,0,30.0,30.0,,,30.0
2018-01-21,17,1493.31,0,33.04666666666667,,33.04666666666667,,
2018-01-21,17,1493.31,0,29.5,29.5,,,29.5
2018-01-21,18,1528.12,0,32.32,,32.32,,
2018-01-21,18,1528.12,0,28.6,28.7,,,28.5
2018-01-21,19,1559.76,0,31.593333333333334,,31.593333333333334,,
2018-01-21,19,1559.76,0,27.45,27.4,,,27.5
2018-01-21,20,1831.32,0,30.866666666666667,,30.866666666666667,,
2018-01-21,20,1831.32,0,26.9,26.8,,,27.0
2018-01-21,21,1943.34,0,30.14,,30.14,,
2018-01-21,21,1943.34,0,26.700000000000003,26.6,,,26.8
2018-01-21,22,1913.86,0,29.41333333333333,,29.41333333333333,,
2018-01-21,22,1913.86,0,26.549999999999997,26.4,,,26.7
2018-01-21,23,1882.91,0,28.686666666666667,,28.686666666666667,,
2018-01-21,23,1882.91,0,26.3,26.1,,,26.5
2018-01-21,24,1647.03,0,27.96,,27.96,,
2018-01-21,24,1647.03,0,26.1,25.9,,,26.3
2018-01-22,1,1667.77,0,25.700000000000003,25.3,,,26.1
2018-01-22,2,1617.35,0,25.65,25.3,,,26.0
2018-01-22,3,1584.69,0,25.5,25.1,,,25.9
2018-01-22,4,1539.42,0,25.450000000000003,25.1,,,25.8
2018-01-22,5,1537.63,0,25.2,24.9,,,25.5
2018-01-22,6,1596.64,0,25.1,24.9,,,25.3
2018-01-22,7,1683.05,0,24.8,24.6,,,25.0
2018-01-22,8,1553.96,0,25.0,24.9,,,25.1
2018-01-22,9,1449.5,0,25.75,25.5,,,26.0
2018-01-22,10,1464.27,0,27.3,27.0,,,27.6
2018-01-22,11,1512.2,0,28.950000000000003,28.6,,,29.3
2018-01-22,12,1562.46,0,30.4,30.2,,,30.6
2018-01-22,13,1566.54,0,30.1,30.5,,,29.7
2018-01-22,14,1579.27,0,29.4,29.8,,,29.0
2018-01-22,15,1594.69,0,29.5,29.5,,,29.5
2018-01-22,16,1623.06,0,29.549999999999997,29.2,,,29.9
2018-01-22,17,1639.26,0,29.05,29.0,,,29.1
2018-01-22,18,1658.91,0,28.1,28.1,,,28.1
2018-01-22,19,1776.75,0,27.05,27.0,,,27.1
2018-01-22,20,1930.03,0,26.700000000000003,26.6,,,26.8
2018-01-22,21,2003.16,0,26.5,26.4,,,26.6
2018-01-22,22,2022.38,0,26.35,26.2,,,26.5
2018-01-22,23,1864.77,0,26.25,26.1,,,26.4
2018-01-22,24,1831.89,0,26.049999999999997,25.9,,,26.2
2018-01-23,1,1765.73,0,26.066666666666663,,26.066666666666663,,
2018-01-23,1,1765.73,0,25.85,25.6,,,26.1
2018-01-23,2,1695.04,0,25.39333333333333,,25.39333333333333,,
2018-01-23,2,1695.04,0,25.8,25.6,,,26.0
2018-01-23,3,1666.5,0,24.72,,24.72,,
2018-01-23,3,1666.5,0,25.7,25.5,,,25.9
2018-01-23,4,1613.22,0,24.046666666666667,,24.046666666666667,,
2018-01-23,4,1613.22,0,25.65,25.5,,,25.8
2018-01-23,5,1598.91,0,23.37333333333333,,23.37333333333333,,
2018-01-23,5,1598.91,0,25.6,25.4,,,25.8
2018-01-23,6,1650.21,0,22.7,,22.7,,
2018-01-23,6,1650.21,0,25.3,25.0,,,25.6
2018-01-23,7,1660.32,0,24.453846594435998,,24.453846594435998,,
2018-01-23,7,1660.32,0,25.35,25.1,,,25.6
2018-01-23,8,1579.08,0,26.154403447589253,,26.154403447589253,,
2018-01-23,8,1579.08,0,25.450000000000003,25.1,,,25.8
2018-01-23,9,1515.85,0,27.75,,27.75,,
2018-01-23,9,1515.85,0,26.3,26.0,,,26.6
2018-01-23,10,1524.5,0,29.192154857834044,,29.192154857834044,,
2018-01-23,10,1524.5,0,27.65,27.4,,,27.9
2018-01-23,11,1578.72,0,30.437048875501677,,30.437048875501677,,
2018-01-23,11,1578.72,0,28.6,28.5,,,28.7
2018-01-23,12,1554.53,0,31.446856578222828,,31.446856578222828,,
2018-01-23,12,1554.53,0,29.6,29.4,,,29.8
2018-01-23,13,1577.57,0,32.19089546993767,,32.19089546993767,,
2018-01-23,13,1577.57,0,29.8,30.0,,,29.6
2018-01-23,14,1590.68,0,32.6465583054233,,32.6465583054233,,
2018-01-23,14,1590.68,0,29.75,29.9,,,29.6
2018-01-23,15,1584.72,0,32.8,,32.8,,
2018-01-23,15,1584.72,0,29.55,29.3,,,29.8
2018-01-23,16,1623.28,0,32.126666666666665,,32.126666666666665,,
2018-01-23,16,1623.28,0,29.65,29.5,,,29.8
2018-01-23,17,1621.51,0,31.453333333333333,,31.453333333333333,,
2018-01-23,17,1621.51,0,29.1,29.0,,,29.2
2018-01-23,18,1671.73,0,30.78,,30.78,,
2018-01-23,18,1671.73,0,28.45,28.4,,,28.5
2018-01-23,19,1666.54,0,30.106666666666666,,30.106666666666666,,
2018-01-23,19,1666.54,0,27.25,27.2,,,27.3
2018-01-23,20,1912.13,0,29.43333333333333,,29.43333333333333,,
2018-01-23,20,1912.13,0,26.65,26.5,,,26.8
2018-01-23,21,2041.69,0,28.76,,28.76,,
2018-01-23,21,2041.69,0,26.450000000000003,26.3,,,26.6
2018-01-23,22,2061.17,0,28.086666666666662,,28.086666666666662,,
2018-01-23,22,2061.17,0,26.25,26.0,,,26.5
2018-01-23,23,1991.53,0,27.41333333333333,,27.41333333333333,,
2018-01-23,23,1991.53,0,26.2,25.9,,,26.5
2018-01-23,24,1803.28,0,26.74,,26.74,,
2018-01-23,24,1803.28,0,25.9,25.6,,,26.2
2018-01-24,1,1803.47,0,26.133333333333333,,,26.133333333333333,
2018-01-24,1,1803.47,0,25.450000000000003,25.1,,,25.8
2018-01-24,2,1702.38,0,25.686666666666667,,,25.686666666666667,
2018-01-24,2,1702.38,0,25.25,25.0,,,25.5
2018-01-24,3,1662.79,0,25.24,,,25.24,
2018-01-24,3,1662.79,0,25.1,24.8,,,25.4
2018-01-24,4,1644.24,0,24.793333333333333,,,24.793333333333333,
2018-01-24,4,1644.24,0,25.0,24.8,,,25.2
2018-01-24,5,1649.06,0,24.346666666666664,,,24.346666666666664,
2018-01-24,5,1649.06,0,24.9,24.6,,,25.2
2018-01-24,6,1680.71,0,23.9,,,23.9,
2018-01-24,6,1680.71,0,24.85,24.7,,,25.0
2018-01-24,7,1764.99,0,25.063442790368438,,,25.063442790368438,
2018-01-24,7,1764.99,0,24.7,24.5,,,24.9
2018-01-24,8,1567.0,0,26.19153496028198,,,26.19153496028198,
2018-01-24,8,1567.0,0,24.75,24.5,,,25.0
2018-01-24,9,1550.81,0,27.25,,,27.25,
2018-01-24,9,1550.81,0,25.7,25.4,,,26.0
2018-01-24,10,1581.85,0,28.20667698489981,,,28.20667698489981,
2018-01-24,10,1581.85,0,27.200000000000003,26.8,,,27.6
2018-01-24,11,1530.56,0,29.03249776889715,,,29.03249776889715,
2018-01-24,11,1530.56,0,28.85,28.7,,,29.0
2018-01-24,12,1554.52,0,29.70237020535574,,,29.70237020535574,
2018-01-24,12,1554.52,0,30.15,30.0,,,30.3
2018-01-24,13,1611.05,0,30.195940559265587,,,30.195940559265587,
2018-01-24,13,1611.05,0,29.6,29.7,,,29.5
2018-01-24,14,1579.01,0,30.498211945181797,,,30.498211945181797,
2018-01-24,14,1579.01,0,29.45,29.4,,,29.5
2018-01-24,15,1574.79,0,30.6,,,30.6,
2018-01-24,15,1574.79,0,29.2,29.4,,,29.0
2018-01-24,16,1432.07,0,30.153333333333336,,,30.153333333333336,
2018-01-24,16,1432.07,0,29.75,29.6,,,29.9
2018-01-24,17,1616.07,0,29.706666666666667,,,29.706666666666667,
2018-01-24,17,1616.07,0,29.35,29.1,,,29.6
2018-01-24,18,1615.68,0,29.26,,,29.26,
2018-01-24,18,1615.68,0,28.299999999999997,28.2,,,28.4
2018-01-24,19,1660.91,0,28.813333333333333,,,28.813333333333333,
2018-01-24,19,1660.91,0,27.15,27.1,,,27.2
2018-01-24,20,1930.63,0,28.366666666666667,,,28.366666666666667,
2018-01-24,20,1930.63,0,26.65,26.5,,,26.8
2018-01-24,21,2031.43,0,27.92,,,27.92,
2018-01-24,21,2031.43,0,26.3,26.1,,,26.5
2018-01-24,22,2018.98,0,27.473333333333333,,,27.473333333333333,
2018-01-24,22,2018.98,0,26.25,26.0,,,26.5
2018-01-24,23,1957.68,0,27.026666666666667,,,27.026666666666667,
2018-01-24,23,1957.68,0,25.95,25.7,,,26.2
2018-01-24,24,1803.97,0,26.58,,,26.58,
2018-01-24,24,1803.97,0,25.85,25.6,,,26.1
2018-01-25,1,1746.5,0,25.966666666666665,,25.6,26.33333333333333,
2018-01-25,1,1746.5,0,25.7,25.4,,,26.0
2018-01-25,2,1666.61,0,25.523333333333333,,25.08,25.96666666666667,
2018-01-25,2,1666.61,0,25.55,25.3,,,25.8
2018-01-25,3,1664.43,0,25.08,,24.56,25.6,
2018-01-25,3,1664.43,0,25.25,25.0,,,25.5
2018-01-25,4,1647.37,0,24.636666666666663,,24.04,25.23333333333333,
2018-01-25,4,1647.37,0,25.05,24.8,,,25.3
2018-01-25,5,1639.46,0,24.193333333333335,,23.52,24.866666666666667,
2018-01-25,5,1639.46,0,24.85,24.5,,,25.2
2018-01-25,6,1663.09,0,23.75,,23.0,24.5,
2018-01-25,6,1663.09,0,24.75,24.4,,,25.1
2018-01-25,7,1723.41,0,24.90476038148509,,24.354455785802056,25.45506497716812,
2018-01-25,7,1723.41,0,24.5,24.1,,,24.9
2018-01-25,8,1595.54,0,26.024433953115697,,25.667757117940216,26.381110788291178,
2018-01-25,8,1595.54,0,24.8,24.5,,,25.1
2018-01-25,9,1522.92,0,27.075,,26.9,27.25,
2018-01-25,9,1522.92,0,26.15,25.9,,,26.4
2018-01-25,10,1484.64,0,28.024537604415485,,28.013743355555007,28.035331853275967,
2018-01-25,10,1484.64,0,27.6,27.4,,,27.8
2018-01-25,11,1528.43,0,28.844195546741204,,28.97514665632803,28.71324443715438,
2018-01-25,11,1528.43,0,28.85,28.8,,,28.9
2018-01-25,12,1561.42,0,29.509068935166518,,29.75499814951862,29.26313972081441,
2018-01-25,12,1561.42,0,29.45,29.5,,,29.4
2018-01-25,13,1534.2,0,29.99895592822629,,30.329602442130085,29.668309414322497,
2018-01-25,13,1534.2,0,27.4,27.2,,,27.6
2018-01-25,14,1521.27,0,30.298971557531182,,30.681500473495223,29.916442641567144,
2018-01-25,14,1521.27,0,27.55,27.0,,,28.1
2018-01-25,15,1533.07,0,30.4,,30.8,30.0,
2018-01-25,15,1533.07,0,28.15,27.7,,,28.6
2018-01-25,16,1555.55,0,29.956666666666667,,30.28,29.633333333333333,
2018-01-25,16,1555.55,0,28.55,28.5,,,28.6
2018-01-25,17,1580.99,0,29.513333333333335,,29.76,29.266666666666666,
2018-01-25,17,1580.99,0,28.25,28.1,,,28.4
2018-01-25,18,1576.1,0,29.07,,29.24,28.9,
2018-01-25,18,1576.1,0,27.55,27.5,,,27.6
2018-01-25,19,1606.31,0,28.626666666666665,,28.72,28.53333333333333,
2018-01-25,19,1606.31,0,26.549999999999997,26.4,,,26.7
2018-01-25,20,1903.52,0,28.183333333333337,,28.200000000000003,28.166666666666668,
2018-01-25,20,1903.52,0,26.049999999999997,25.9,,,26.2
2018-01-25,21,1961.89,0,27.740000000000002,,27.68,27.8,
2018-01-25,21,1961.89,0,25.85,25.6,,,26.1
2018-01-25,22,1950.74,0,27.296666666666667,,27.16,27.433333333333334,
2018-01-25,22,1950.74,0,25.85,25.6,,,26.1
2018-01-25,23,1809.05,0,26.85333333333333,,26.64,27.066666666666663,
2018-01-25,23,1809.05,0,25.7,25.5,,,25.9
2018-01-25,24,1800.22,0,26.41,,26.12,26.7,
2018-01-25,24,1800.22,0,25.6,25.3,,,25.9
2018-01-26,1,1722.93,0,25.566666666666663,,25.566666666666663,,
2018-01-26,1,1722.93,0,25.05,24.6,,,25.5
2018-01-26,2,1676.7,0,24.73333333333333,,24.73333333333333,,
2018-01-26,2,1676.7,0,24.75,24.5,,,25.0
2018-01-26,3,1617.7,0,23.9,,23.9,,
2018-01-26,3,1617.7,0,24.3,23.8,,,24.8
2018-01-26,4,1608.2,0,23.066666666666663,,23.066666666666663,,
2018-01-26,4,1608.2,0,24.15,23.7,,,24.6
2018-01-26,5,1610.2,0,22.23333333333333,,22.23333333333333,,
2018-01-26,5,1610.2,0,24.0,23.5,,,24.5
2018-01-26,6,1596.2,0,21.4,,21.4,,
2018-01-26,6,1596.2,0,23.85,23.5,,,24.2
2018-01-26,7,1664.2,0,23.570602220836623,,23.570602220836623,,
2018-01-26,7,1664.2,0,23.7,23.4,,,24.0
2018-01-26,8,1584.7,0,25.675251791570854,,25.675251791570854,,
2018-01-26,8,1584.7,0,23.8,23.5,,,24.1
2018-01-26,9,1466.5,0,27.65,,27.65,,
2018-01-26,9,1466.5,0,25.15,24.9,,,25.4
2018-01-26,10,1474.2,0,29.43484512108174,,29.43484512108174,,
2018-01-26,10,1474.2,0,27.049999999999997,26.9,,,27.2
2018-01-26,11,1525.8,0,30.975555538987223,,30.975555538987223,,
2018-01-26,11,1525.8,0,28.5,28.4,,,28.6
2018-01-26,12,1531.5,0,32.22531754730548,,32.22531754730548,,
2018-01-26,12,1531.5,0,29.5,29.5,,,29.5
2018-01-26,13,1545.9,0,33.14615775982385,,33.14615775982385,,
2018-01-26,13,1545.9,0,29.299999999999997,29.4,,,29.2
2018-01-26,14,1541.4,0,33.7100969126526,,33.7100969126526,,
2018-01-26,14,1541.4,0,29.75,29.7,,,29.8
2018-01-26,15,1570.1,0,33.9,,33.9,,
2018-01-26,15,1570.1,0,29.5,29.5,,,29.5
2018-01-26,16,1616.3,0,33.06666666666666,,33.06666666666666,,
2018-01-26,16,1616.3,0,29.15,29.2,,,29.1
2018-01-26,17,1625.3,0,32.233333333333334,,32.233333333333334,,
2018-01-26,17,1625.3,0,28.9,28.9,,,28.9
2018-01-26,18,1666.0,0,31.4,,31.4,,
2018-01-26,18,1666.0,0,28.1,28.1,,,28.1
2018-01-26,19,1649.7,0,30.566666666666663,,30.566666666666663,,
2018-01-26,19,1649.7,0,27.0,27.0,,,27.0
2018-01-26,20,1937.72,0,29.73333333333333,,29.73333333333333,,
2018-01-26,20,1937.72,0,26.45,26.4,,,26.5
2018-01-26,21,1940.75,0,28.9,,28.9,,
2018-01-26,21,1940.75,0,26.1,26.0,,,26.2
2018-01-26,22,1993.1,0,28.066666666666663,,28.066666666666663,,
2018-01-26,22,1993.1,0,25.85,25.7,,,26.0
2018-01-26,23,1941.6,0,27.23333333333333,,27.23333333333333,,
2018-01-26,23,1941.6,0,25.55,25.3,,,25.8
2018-01-26,24,1846.6,0,26.4,,26.4,,
2018-01-26,24,1846.6,0,25.3,25.1,,,25.5
2018-01-27,1,1745.9,0,25.8,,25.8,,
2018-01-27,1,1745.9,0,24.25,23.5,,,25.0
2018-01-27,2,1746.93,0,24.98,,24.98,,
2018-01-27,2,1746.93,0,24.25,23.9,,,24.6
2018-01-27,3,1682.76,0,24.16,,24.16,,
2018-01-27,3,1682.76,0,24.0,23.5,,,24.5
2018-01-27,4,1635.36,0,23.34,,23.34,,
2018-01-27,4,1635.36,0,23.85,23.5,,,24.2
2018-01-27,5,1606.73,0,22.52,,22.52,,
2018-01-27,5,1606.73,0,23.8,23.5,,,24.1
2018-01-27,6,1583.07,0,21.7,,21.7,,
2018-01-27,6,1583.07,0,23.8,23.5,,,24.1
2018-01-27,7,1561.15,0,23.83587258530324,,23.83587258530324,,
2018-01-27,7,1561.15,0,24.049999999999997,23.7,,,24.4
2018-01-27,8,1462.25,0,25.906847762905723,,25.906847762905723,,
2018-01-27,8,1462.25,0,24.4,24.2,,,24.6
2018-01-27,9,1421.7,0,27.85,,27.85,,
2018-01-27,9,1421.7,0,25.65,25.4,,,25.9
2018-01-27,10,1369.88,0,29.606287599144437,,29.606287599144437,,
2018-01-27,10,1369.88,0,27.049999999999997,26.9,,,27.2
2018-01-27,11,1361.88,0,31.12234665036343,,31.12234665036343,,
2018-01-27,11,1361.88,0,28.55,28.5,,,28.6
2018-01-27,12,1385.38,0,32.3521124665486,,32.3521124665486,,
2018-01-27,12,1385.38,0,30.05,30.0,,,30.1
2018-01-27,13,1408.75,0,33.25821923566667,,33.25821923566667,,
2018-01-27,13,1408.75,0,30.8,31.1,,,30.5
2018-01-27,14,1444.95,0,33.81313536205016,,33.81313536205016,,
2018-01-27,14,1444.95,0,30.6,31.1,,,30.1
2018-01-27,15,1456.33,0,34.0,,34.0,,
2018-01-27,15,1456.33,0,30.2,30.4,,,30.0
2018-01-27,16,1491.63,0,33.18,,33.18,,
2018-01-27,16,1491.63,0,30.1,30.1,,,30.1
2018-01-27,17,1483.93,0,32.36,,32.36,,
2018-01-27,17,1483.93,0,29.0,29.0,,,29.0
2018-01-27,18,1504.13,0,31.54,,31.54,,
2018-01-27,18,1504.13,0,28.1,28.1,,,28.1
2018-01-27,19,1562.08,0,30.72,,30.72,,
2018-01-27,19,1562.08,0,27.0,27.0,,,27.0
2018-01-27,20,1805.97,0,29.9,,29.9,,
2018-01-27,20,1805.97,0,26.5,26.4,,,26.6
2018-01-27,21,1942.92,0,29.08,,29.08,,
2018-01-27,21,1942.92,0,26.45,26.4,,,26.5
2018-01-27,22,1988.08,0,28.26,,28.26,,
2018-01-27,22,1988.08,0,26.3,26.1,,,26.5
2018-01-27,23,1950.99,0,27.44,,27.44,,
2018-01-27,23,1950.99,0,26.15,25.9,,,26.4
2018-01-27,24,1891.27,0,26.62,,26.62,,
2018-01-27,24,1891.27,0,26.0,25.8,,,26.2
2018-01-28,1,1791.9,0,26.43333333333333,,26.566666666666663,26.3,
2018-01-28,1,1791.9,0,25.450000000000003,25.1,,,25.8
2018-01-28,2,1643.64,0,25.856666666666662,,25.83333333333333,25.88,
2018-01-28,2,1643.64,0,25.25,25.0,,,25.5
2018-01-28,3,1654.71,0,25.28,,25.1,25.46,
2018-01-28,3,1654.71,0,25.0,24.8,,,25.2
2018-01-28,4,1567.91,0,24.703333333333333,,24.366666666666664,25.04,
2018-01-28,4,1567.91,0,24.7,24.4,,,25.0
2018-01-28,5,1570.21,0,24.126666666666665,,23.633333333333333,24.62,
2018-01-28,5,1570.21,0,24.549999999999997,24.2,,,24.9
2018-01-28,6,1578.18,0,23.549999999999997,,22.9,24.2,
2018-01-28,6,1578.18,0,24.65,24.4,,,24.9
2018-01-28,7,1600.09,0,25.05205673681895,,24.810129954336237,25.293983519301666,
2018-01-28,7,1600.09,0,24.6,24.4,,,24.8
2018-01-28,8,1526.61,0,26.508474239767033,,26.662221576582358,26.35472690295171,
2018-01-28,8,1526.61,0,24.9,24.6,,,25.2
2018-01-28,9,1475.08,0,27.875,,28.4,27.35,
2018-01-28,9,1475.08,0,26.2,25.9,,,26.5
2018-01-28,10,1423.81,0,29.110112823788565,,29.97066370655193,28.2495619410252,
2018-01-28,10,1423.81,0,27.950000000000003,27.8,,,28.1
2018-01-28,11,1373.1,0,30.17628443297916,,31.32648887430876,29.02607999164956,
2018-01-28,11,1373.1,0,29.4,29.2,,,29.6
2018-01-28,12,1365.6,0,31.041119742735393,,32.42627944162882,29.655960043841965,
2018-01-28,12,1365.6,0,30.55,30.5,,,30.6
2018-01-28,13,1372.71,0,31.67834116979811,,33.23661882864499,30.120063510951223,
2018-01-28,13,1372.71,0,31.35,31.6,,,31.1
2018-01-28,14,1403.79,0,32.0685870635556,,33.73288528313429,30.40428884397691,
2018-01-28,14,1403.79,0,31.0,31.1,,,30.9
2018-01-28,15,1468.39,0,32.2,,33.9,30.5,
2018-01-28,15,1468.39,0,30.15,29.8,,,30.5
2018-01-28,16,1517.99,0,31.62333333333333,,33.166666666666664,30.08,
2018-01-28,16,1517.99,0,29.85,29.5,,,30.2
2018-01-28,17,1543.08,0,31.046666666666667,,32.43333333333333,29.66,
2018-01-28,17,1543.08,0,29.55,29.6,,,29.5
2018-01-28,18,1553.18,0,30.47,,31.7,29.24,
2018-01-28,18,1553.18,0,29.1,29.1,,,29.1
2018-01-28,19,1539.99,0,29.89333333333333,,30.966666666666665,28.82,
2018-01-28,19,1539.99,0,27.85,27.9,,,27.8
2018-01-28,20,1853.09,0,29.316666666666663,,30.23333333333333,28.4,
2018-01-28,20,1853.09,0,27.1,27.0,,,27.2
2018-01-28,21,1924.61,0,28.740000000000002,,29.5,27.98,
2018-01-28,21,1924.61,0,26.75,26.6,,,26.9
2018-01-28,22,1942.66,0,28.163333333333334,,28.766666666666666,27.56,
2018-01-28,22,1942.66,0,26.6,26.4,,,26.8
2018-01-28,23,1805.77,0,27.586666666666666,,28.03333333333333,27.14,
2018-01-28,23,1805.77,0,26.25,26.0,,,26.5
2018-01-28,24,1760.67,0,27.009999999999998,,27.3,26.72,
2018-01-28,24,1760.67,0,26.0,25.8,,,26.2
2018-01-29,1,1706.48,0,25.8,25.5,,,26.1
2018-01-29,2,1617.35,0,25.85,25.6,,,26.1
2018-01-29,3,1592.04,0,25.55,25.3,,,25.8
2018-01-29,4,1550.48,0,25.25,25.0,,,25.5
2018-01-29,5,1537.63,0,25.15,24.9,,,25.4
2018-01-29,6,1596.64,0,25.0,24.8,,,25.2
2018-01-29,7,1683.29,0,24.85,24.6,,,25.1
2018-01-29,8,1559.14,0,25.1,24.8,,,25.4
2018-01-29,9,1513.11,0,26.6,26.4,,,26.8
2018-01-29,10,1543.37,0,28.25,28.1,,,28.4
2018-01-29,11,1512.2,0,29.6,29.7,,,29.5
2018-01-29,12,1562.46,0,30.35,30.5,,,30.2
2018-01-29,13,1566.54,0,30.75,31.0,,,30.5
2018-01-29,14,1579.27,0,30.7,30.7,,,30.7
2018-01-29,15,1594.69,0,30.4,30.4,,,30.4
2018-01-29,16,1623.06,0,30.25,30.2,,,30.3
2018-01-29,17,1639.26,0,29.6,29.7,,,29.5
2018-01-29,18,1658.91,0,28.5,28.5,,,28.5
2018-01-29,19,1776.75,0,27.55,27.5,,,27.6
2018-01-29,20,1930.03,0,27.1,27.0,,,27.2
2018-01-29,21,2004.85,0,26.75,26.6,,,26.9
2018-01-29,22,2039.72,0,26.65,26.5,,,26.8
2018-01-29,23,1943.73,0,26.35,26.2,,,26.5
2018-01-29,24,1831.89,0,26.25,26.0,,,26.5
2018-01-30,1,1778.61,0,26.700000000000003,,26.700000000000003,,
2018-01-30,1,1778.61,0,25.9,25.6,,,26.2
2018-01-30,2,1742.7,0,25.9,,25.9,,
2018-01-30,2,1742.7,0,25.85,25.6,,,26.1
2018-01-30,3,1698.4,0,25.1,,25.1,,
2018-01-30,3,1698.4,0,25.65,25.4,,,25.9
2018-01-30,4,1687.0,0,24.3,,24.3,,
2018-01-30,4,1687.0,0,25.35,25.1,,,25.6
2018-01-30,5,1635.0,0,23.5,,23.5,,
2018-01-30,5,1635.0,0,25.2,24.9,,,25.5
2018-01-30,6,1680.2,0,22.7,,22.7,,
2018-01-30,6,1680.2,0,24.950000000000003,24.6,,,25.3
2018-01-30,7,1755.2,0,24.783778132003164,,24.783778132003164,,
2018-01-30,7,1755.2,0,24.7,24.4,,,25.0
2018-01-30,8,1621.1,0,26.804241719908024,,26.804241719908024,,
2018-01-30,8,1621.1,0,24.85,24.6,,,25.1
2018-01-30,9,1548.8,0,28.7,,28.7,,
2018-01-30,9,1548.8,0,26.200000000000003,25.8,,,26.6
2018-01-30,10,1603.4,0,30.413451316238472,,30.413451316238472,,
2018-01-30,10,1603.4,0,27.95,27.7,,,28.2
2018-01-30,11,1550.6,0,31.892533317427738,,31.892533317427738,,
2018-01-30,11,1550.6,0,29.7,29.5,,,29.9
2018-01-30,12,1658.3,0,33.09230484541327,,33.09230484541327,,
2018-01-30,12,1658.3,0,31.15,31.1,,,31.2
2018-01-30,13,1643.5,0,33.9763114494309,,33.9763114494309,,
2018-01-30,13,1643.5,0,30.75,30.9,,,30.6
2018-01-30,14,1668.6,0,34.5176930361465,,34.5176930361465,,
2018-01-30,14,1668.6,0,31.1,31.4,,,30.8
2018-01-30,15,1685.7,0,34.7,,34.7,,
2018-01-30,15,1685.7,0,30.25,30.1,,,30.4
2018-01-30,16,1701.9,0,33.900000000000006,,33.900000000000006,,
2018-01-30,16,1701.9,0,30.3,30.1,,,30.5
2018-01-30,17,1768.3,0,33.1,,33.1,,
2018-01-30,17,1768.3,0,29.5,29.4,,,29.6
2018-01-30,18,1656.2,0,32.300000000000004,,32.300000000000004,,
2018-01-30,18,1656.2,0,28.25,28.1,,,28.4
2018-01-30,19,1759.7,0,31.5,,31.5,,
2018-01-30,19,1759.7,0,27.200000000000003,27.1,,,27.3
2018-01-30,20,1978.34,0,30.700000000000003,,30.700000000000003,,
2018-01-30,20,1978.34,0,26.85,26.7,,,27.0
2018-01-30,21,2042.01,0,29.9,,29.9,,
2018-01-30,21,2042.01,0,26.7,26.5,,,26.9
2018-01-30,22,2067.9,0,29.1,,29.1,,
2018-01-30,22,2067.9,0,26.450000000000003,26.3,,,26.6
2018-01-30,23,2033.2,0,28.3,,28.3,,
2018-01-30,23,2033.2,0,26.3,26.1,,,26.5
2018-01-30,24,1890.1,0,27.5,,27.5,,
2018-01-30,24,1890.1,0,26.049999999999997,25.9,,,26.2
2018-01-31,1,1826.4,0,27.4,,27.4,,
2018-01-31,1,1826.4,0,25.9,25.7,,,26.1
2018-01-31,2,1763.5,0,26.74,,26.74,,
2018-01-31,2,1763.5,0,26.049999999999997,25.9,,,26.2
2018-01-31,3,1705.1,0,26.08,,26.08,,
2018-01-31,3,1705.1,0,25.8,25.6,,,26.0
2018-01-31,4,1700.4,0,25.42,,25.42,,
2018-01-31,4,1700.4,0,25.7,25.5,,,25.9
2018-01-31,5,1663.1,0,24.76,,24.76,,
2018-01-31,5,1663.1,0,25.450000000000003,25.1,,,25.8
2018-01-31,6,1703.2,0,24.1,,24.1,,
2018-01-31,6,1703.2,0,25.4,25.1,,,25.7
2018-01-31,7,1927.3,0,25.81911695890261,,25.81911695890261,,
2018-01-31,7,1927.3,0,25.3,25.1,,,25.5
2018-01-31,8,1531.9,0,27.48599941892412,,27.48599941892412,,
2018-01-31,8,1531.9,0,25.55,25.3,,,25.8
2018-01-31,9,1567.6,0,29.05,,29.05,,
2018-01-31,9,1567.6,0,26.55,26.3,,,26.8
2018-01-31,10,1617.6,0,30.46359733589674,,30.46359733589674,,
2018-01-31,10,1617.6,0,27.95,27.7,,,28.2
2018-01-31,11,1619.3,0,31.68383998687788,,31.68383998687788,,
2018-01-31,11,1619.3,0,29.1,28.9,,,29.3
2018-01-31,12,1652.4,0,32.67365149746594,,32.67365149746594,,
2018-01-31,12,1652.4,0,29.950000000000003,29.8,,,30.1
2018-01-31,13,1656.2,0,33.40295694578049,,33.40295694578049,,
2018-01-31,13,1656.2,0,29.700000000000003,29.8,,,29.6
2018-01-31,14,1677.2,0,33.84959675482086,,33.84959675482086,,
2018-01-31,14,1677.2,0,30.45,30.4,,,30.5
2018-01-31,15,1704.3,0,34.0,,34.0,,
2018-01-31,15,1704.3,0,30.5,30.5,,,30.5
2018-01-31,16,1519.4,0,33.34,,33.34,,
2018-01-31,16,1519.4,0,30.0,30.0,,,30.0
2018-01-31,17,1733.2,0,32.68,,32.68,,
2018-01-31,17,1733.2,0,29.4,29.3,,,29.5
2018-01-31,18,1761.3,0,32.02,,32.02,,
2018-01-31,18,1761.3,0,28.5,28.4,,,28.6
2018-01-31,19,1864.8,0,31.36,,31.36,,
2018-01-31,19,1864.8,0,27.6,27.4,,,27.8
2018-01-31,20,1999.68,0,30.700000000000003,,30.700000000000003,,
2018-01-31,20,1999.68,0,27.2,27.0,,,27.4
2018-01-31,21,2043.28,0,30.04,,30.04,,
2018-01-31,21,2043.28,0,26.950000000000003,26.8,,,27.1
2018-01-31,22,2095.6,0,29.380000000000003,,29.380000000000003,,
2018-01-31,22,2095.6,0,26.8,26.6,,,27.0
2018-01-31,23,2006.7,0,28.72,,28.72,,
2018-01-31,23,2006.7,0,26.6,26.4,,,26.8
2018-01-31,24,2037.5,0,28.06,,28.06,,
2018-01-31,24,2037.5,0,26.4,26.2,,,26.6
2018-02-01,1,1928.1,0,27.366666666666667,,,27.366666666666667,
2018-02-01,1,1928.1,0,26.25,26.0,,,26.5
2018-02-01,2,1817.4,0,26.933333333333334,,,26.933333333333334,
2018-02-01,2,1817.4,0,26.15,25.9,,,26.4
2018-02-01,3,1743.8,0,26.5,,,26.5,
2018-02-01,3,1743.8,0,25.8,25.5,,,26.1
2018-02-01,4,1739.2,0,26.066666666666663,,,26.066666666666663,
2018-02-01,4,1739.2,0,25.65,25.4,,,25.9
2018-02-01,5,1717.5,0,25.633333333333333,,,25.633333333333333,
2018-02-01,5,1717.5,0,25.35,25.1,,,25.6
2018-02-01,6,1742.4,0,25.2,,,25.2,
2018-02-01,6,1742.4,0,25.15,24.9,,,25.4
2018-02-01,7,1795.4,0,26.328713154835047,,,26.328713154835047,
2018-02-01,7,1795.4,0,24.950000000000003,24.8,,,25.1
2018-02-01,8,1591.7,0,27.423130931616846,,,27.423130931616846,
2018-02-01,8,1591.7,0,25.2,25.0,,,25.4
2018-02-01,9,1577.4,0,28.45,,,28.45,
2018-02-01,9,1577.4,0,26.3,26.0,,,26.6
2018-02-01,10,1599.7,0,29.378119462962506,,,29.378119462962506,
2018-02-01,10,1599.7,0,28.15,28.0,,,28.3
2018-02-01,11,1613.4,0,30.179288880273354,,,30.179288880273354,
2018-02-01,11,1613.4,0,29.8,29.6,,,30.0
2018-02-01,12,1612.1,0,30.82916512459885,,,30.82916512459885,
2018-02-01,12,1612.1,0,31.05,31.0,,,31.1
2018-02-01,13,1698.0,0,31.3080020351084,,,31.3080020351084,
2018-02-01,13,1698.0,0,31.049999999999997,31.2,,,30.9
2018-02-01,14,1705.8,0,31.601250394579356,,,31.601250394579356,
2018-02-01,14,1705.8,0,30.85,31.0,,,30.7
2018-02-01,15,1703.3,0,31.7,,,31.7,
2018-02-01,15,1703.3,0,30.55,30.5,,,30.6
2018-02-01,16,1728.3,0,31.266666666666666,,,31.266666666666666,
2018-02-01,16,1728.3,0,30.5,30.4,,,30.6
2018-02-01,17,1732.4,0,30.83333333333333,,,30.83333333333333,
2018-02-01,17,1732.4,0,29.6,29.6,,,29.6
2018-02-01,18,1729.2,0,30.4,,,30.4,
2018-02-01,18,1729.2,0,28.700000000000003,28.6,,,28.8
2018-02-01,19,1747.7,0,29.96666666666667,,,29.96666666666667,
2018-02-01,19,1747.7,0,27.700000000000003,27.6,,,27.8
2018-02-01,20,1987.72,0,29.53333333333333,,,29.53333333333333,
2018-02-01,20,1987.72,0,27.25,27.1,,,27.4
2018-02-01,21,2088.25,0,29.1,,,29.1,
2018-02-01,21,2088.25,0,27.049999999999997,26.9,,,27.2
2018-02-01,22,2140.5,0,28.666666666666664,,,28.666666666666664,
2018-02-01,22,2140.5,0,26.950000000000003,26.8,,,27.1
2018-02-01,23,2065.6,0,28.23333333333333,,,28.23333333333333,
2018-02-01,23,2065.6,0,26.75,26.5,,,27.0
2018-02-01,24,1962.0,0,27.8,,,27.8,
2018-02-01,24,1962.0,0,26.6,26.4,,,26.8
2018-02-02,1,1887.9,0,28.4,,28.4,,
2018-02-02,1,1887.9,0,26.5,26.2,,,26.8
2018-02-02,2,1817.38,0,27.76,,27.76,,
2018-02-02,2,1817.38,0,26.45,26.2,,,26.7
2018-02-02,3,1789.04,0,27.12,,27.12,,
2018-02-02,3,1789.04,0,26.15,25.8,,,26.5
2018-02-02,4,1745.66,0,26.48,,26.48,,
2018-02-02,4,1745.66,0,25.85,25.5,,,26.2
2018-02-02,5,1716.45,0,25.84,,25.84,,
2018-02-02,5,1716.45,0,25.65,25.2,,,26.1
2018-02-02,6,1761.69,0,25.2,,25.2,,
2018-02-02,6,1761.69,0,25.549999999999997,25.2,,,25.9
2018-02-02,7,1793.89,0,26.86702250560253,,26.86702250560253,,
2018-02-02,7,1793.89,0,25.35,25.0,,,25.7
2018-02-02,8,1635.33,0,28.48339337592642,,28.48339337592642,,
2018-02-02,8,1635.33,0,25.4,25.0,,,25.8
2018-02-02,9,1570.19,0,30.0,,30.0,,
2018-02-02,9,1570.19,0,26.5,26.2,,,26.8
2018-02-02,10,1582.28,0,31.370761052990773,,31.370761052990773,,
2018-02-02,10,1582.28,0,28.25,27.8,,,28.7
2018-02-02,11,1629.33,0,32.55402665394219,,32.55402665394219,,
2018-02-02,11,1629.33,0,29.85,29.5,,,30.2
2018-02-02,12,1636.39,0,33.51384387633061,,33.51384387633061,,
2018-02-02,12,1636.39,0,31.15,30.9,,,31.4
2018-02-02,13,1670.73,0,34.22104915954472,,34.22104915954472,,
2018-02-02,13,1670.73,0,31.2,31.4,,,31.0
2018-02-02,14,1675.9,0,34.654154428917195,,34.654154428917195,,
2018-02-02,14,1675.9,0,31.0,31.4,,,30.6
2018-02-02,15,1678.99,0,34.8,,34.8,,
2018-02-02,15,1678.99,0,31.200000000000003,30.8,,,31.6
2018-02-02,16,1714.33,0,34.16,,34.16,,
2018-02-02,16,1714.33,0,30.85,30.9,,,30.8
2018-02-02,17,1663.72,0,33.52,,33.52,,
2018-02-02,17,1663.72,0,30.35,30.4,,,30.3
2018-02-02,18,1695.73,0,32.879999999999995,,32.879999999999995,,
2018-02-02,18,1695.73,0,29.25,29.1,,,29.4
2018-02-02,19,1702.18,0,32.239999999999995,,32.239999999999995,,
2018-02-02,19,1702.18,0,28.05,28.0,,,28.1
2018-02-02,20,2017.41,0,31.6,,31.6,,
2018-02-02,20,2017.41,0,27.45,27.4,,,27.5
2018-02-02,21,2004.95,0,30.96,,30.96,,
2018-02-02,21,2004.95,0,27.1,27.0,,,27.2
2018-02-02,22,2104.2,0,30.32,,30.32,,
2018-02-02,22,2104.2,0,26.9,26.8,,,27.0
2018-02-02,23,2027.73,0,29.68,,29.68,,
2018-02-02,23,2027.73,0,26.7,26.5,,,26.9
2018-02-02,24,1927.77,0,29.04,,29.04,,
2018-02-02,24,1927.77,0,26.4,26.2,,,26.6
2018-02-03,1,1845.4,0,27.4,,27.4,,
2018-02-03,1,1845.4,0,26.6,26.3,,,26.9
2018-02-03,2,1805.64,0,26.78,,26.78,,
2018-02-03,2,1805.64,0,26.75,26.5,,,27.0
2018-02-03,3,1752.84,0,26.16,,26.16,,
2018-02-03,3,1752.84,0,26.45,26.2,,,26.7
2018-02-03,4,1751.97,0,25.54,,25.54,,
2018-02-03,4,1751.97,0,26.25,26.0,,,26.5
2018-02-03,5,1715.75,0,24.92,,24.92,,
2018-02-03,5,1715.75,0,25.950000000000003,25.6,,,26.3
2018-02-03,6,1707.36,0,24.3,,24.3,,
2018-02-03,6,1707.36,0,25.7,25.4,,,26.0
2018-02-03,7,1578.94,0,25.914928052302454,,25.914928052302454,,
2018-02-03,7,1578.94,0,25.35,25.0,,,25.7
2018-02-03,8,1433.22,0,27.48078733292872,,27.48078733292872,,
2018-02-03,8,1433.22,0,25.6,25.3,,,25.9
2018-02-03,9,1501.46,0,28.95,,28.95,,
2018-02-03,9,1501.46,0,26.9,26.6,,,27.2
2018-02-03,10,1540.3,0,30.277924770084816,,30.277924770084816,,
2018-02-03,10,1540.3,0,28.7,28.5,,,28.9
2018-02-03,11,1527.09,0,31.424213321006494,,31.424213321006494,,
2018-02-03,11,1527.09,0,30.35,30.2,,,30.5
2018-02-03,12,1541.63,0,32.35403625519528,,32.35403625519528,,
2018-02-03,12,1541.63,0,31.5,31.5,,,31.5
2018-02-03,13,1599.0,0,33.03914137330895,,33.03914137330895,,
2018-02-03,13,1599.0,0,31.3,31.6,,,31.0
2018-02-03,14,1602.87,0,33.45871210301354,,33.45871210301354,,
2018-02-03,14,1602.87,0,30.7,30.9,,,30.5
2018-02-03,15,1632.47,0,33.6,,33.6,,
2018-02-03,15,1632.47,0,31.2,31.5,,,30.9
2018-02-03,16,1538.37,0,32.980000000000004,,32.980000000000004,,
2018-02-03,16,1538.37,0,30.8,30.8,,,30.8
2018-02-03,17,1453.29,0,32.36,,32.36,,
2018-02-03,17,1453.29,0,29.9,29.9,,,29.9
2018-02-03,18,1436.97,0,31.74,,31.74,,
2018-02-03,18,1436.97,0,28.95,29.0,,,28.9
2018-02-03,19,1474.77,0,31.12,,31.12,,
2018-02-03,19,1474.77,0,28.0,28.0,,,28.0
2018-02-03,20,1834.66,0,30.5,,30.5,,
2018-02-03,20,1834.66,0,27.55,27.5,,,27.6
2018-02-03,21,1789.71,0,29.880000000000003,,29.880000000000003,,
2018-02-03,21,1789.71,0,27.25,27.1,,,27.4
2018-02-03,22,1796.09,0,29.26,,29.26,,
2018-02-03,22,1796.09,0,27.1,27.0,,,27.2
2018-02-03,23,1821.74,0,28.64,,28.64,,
2018-02-03,23,1821.74,0,26.85,26.7,,,27.0
2018-02-03,24,1695.8,0,28.020000000000003,,28.020000000000003,,
2018-02-03,24,1695.8,0,26.65,26.5,,,26.8
2018-02-04,1,1685.97,0,27.833333333333336,,27.96666666666667,27.7,
2018-02-04,1,1685.97,0,26.6,26.4,,,26.8
2018-02-04,2,1548.69,0,27.246666666666663,,27.17333333333333,27.32,
2018-02-04,2,1548.69,0,26.7,26.5,,,26.9
2018-02-04,3,1515.91,0,26.66,,26.38,26.94,
2018-02-04,3,1515.91,0,26.4,26.2,,,26.6
2018-02-04,4,1513.03,0,26.07333333333333,,25.586666666666662,26.56,
2018-02-04,4,1513.03,0,26.35,26.1,,,26.6
2018-02-04,5,1471.79,0,25.486666666666665,,24.793333333333333,26.18,
2018-02-04,5,1471.79,0,26.3,26.0,,,26.6
2018-02-04,6,1393.86,0,24.9,,24.0,25.8,
2018-02-04,6,1393.86,0,26.0,25.6,,,26.4
2018-02-04,7,1462.17,0,26.428103963468985,,26.06641331423647,26.789794612701503,
2018-02-04,7,1462.17,0,25.7,25.4,,,26.0
2018-02-04,8,1314.6,0,27.909777261265887,,28.070039705575457,27.749514816956317,
2018-02-04,8,1314.6,0,25.85,25.6,,,26.1
2018-02-04,9,1304.96,0,29.299999999999997,,29.95,28.65,
2018-02-04,9,1304.96,0,27.2,27.0,,,27.4
2018-02-04,10,1258.25,0,30.556530965241542,,31.64917255526981,29.463889375213277,
2018-02-04,10,1258.25,0,28.75,28.6,,,28.9
2018-02-04,11,1175.47,0,31.641191099447003,,33.115928873115834,30.16645332577817,
2018-02-04,11,1175.47,0,30.35,30.5,,,30.2
2018-02-04,12,1186.93,0,32.52102355330306,,34.30570230503482,30.7363448015713,
2018-02-04,12,1186.93,0,31.3,31.5,,,31.1
2018-02-04,13,1200.53,0,33.16929506291599,,35.182342187352305,31.15624793847968,
2018-02-04,13,1200.53,0,31.15,31.5,,,30.8
2018-02-04,14,1223.49,0,33.56630822650743,,35.719212260845275,31.413404192169587,
2018-02-04,14,1223.49,0,31.049999999999997,31.2,,,30.9
2018-02-04,15,1256.55,0,33.7,,35.9,31.5,
2018-02-04,15,1256.55,0,31.200000000000003,31.1,,,31.3
2018-02-04,16,1245.48,0,33.11333333333334,,35.10666666666667,31.12,
2018-02-04,16,1245.48,0,31.299999999999997,31.2,,,31.4
2018-02-04,17,1322.38,0,32.526666666666664,,34.31333333333333,30.74,
2018-02-04,17,1322.38,0,30.3,30.1,,,30.5
2018-02-04,18,1375.86,0,31.94,,33.52,30.36,
2018-02-04,18,1375.86,0,29.35,29.3,,,29.4
2018-02-04,19,1377.99,0,31.35333333333333,,32.72666666666667,29.98,
2018-02-04,19,1377.99,0,28.05,28.1,,,28.0
2018-02-04,20,1695.0,0,30.766666666666666,,31.933333333333334,29.6,
2018-02-04,20,1695.0,0,27.6,27.5,,,27.7
2018-02-04,21,1773.06,0,30.18,,31.14,29.22,
2018-02-04,21,1773.06,0,27.4,27.3,,,27.5
2018-02-04,22,1789.54,0,29.593333333333334,,30.346666666666664,28.84,
2018-02-04,22,1789.54,0,27.1,27.0,,,27.2
2018-02-04,23,1701.51,0,29.006666666666668,,29.55333333333333,28.46,
2018-02-04,23,1701.51,0,26.950000000000003,26.8,,,27.1
2018-02-04,24,1605.63,0,28.42,,28.76,28.08,
2018-02-04,24,1605.63,0,26.8,26.6,,,27.0
2018-02-05,1,1551.71,0,29.266666666666666,,29.266666666666666,,
2018-02-05,1,1551.71,0,26.8,26.5,,,27.1
2018-02-05,2,1387.0,0,28.51333333333333,,28.51333333333333,,
2018-02-05,2,1387.0,0,26.75,26.5,,,27.0
2018-02-05,3,1446.0,0,27.76,,27.76,,
2018-02-05,3,1446.0,0,26.7,26.5,,,26.9
2018-02-05,4,1450.9,0,27.006666666666668,,27.006666666666668,,
2018-02-05,4,1450.9,0,26.65,26.4,,,26.9
2018-02-05,5,1456.0,0,26.25333333333333,,26.25333333333333,,
2018-02-05,5,1456.0,0,26.55,26.3,,,26.8
2018-02-05,6,1471.8,0,25.5,,25.5,,
2018-02-05,6,1471.8,0,26.4,26.2,,,26.6
2018-02-05,7,1387.1,0,27.462224407636317,,27.462224407636317,,
2018-02-05,7,1387.1,0,26.3,26.0,,,26.6
2018-02-05,8,1576.4,0,29.36482761958005,,29.36482761958005,,
2018-02-05,8,1576.4,0,26.549999999999997,26.4,,,26.7
2018-02-05,9,1480.1,0,31.15,,31.15,,
2018-02-05,9,1480.1,0,27.4,27.2,,,27.6
2018-02-05,10,1556.1,0,32.76349998945789,,32.76349998945789,,
2018-02-05,10,1556.1,0,29.0,28.8,,,29.2
2018-02-05,11,1618.7,0,34.15630220724445,,34.15630220724445,,
2018-02-05,11,1618.7,0,30.7,30.9,,,30.5
2018-02-05,12,1670.2,0,35.28608706276415,,35.28608706276415,,
2018-02-05,12,1670.2,0,31.85,31.9,,,31.8
2018-02-05,13,1715.0,0,36.11852661488077,,36.11852661488077,,
2018-02-05,13,1715.0,0,31.65,31.9,,,31.4
2018-02-05,14,1633.9,0,36.628327609037946,,36.628327609037946,,
2018-02-05,14,1633.9,0,31.45,31.4,,,31.5
2018-02-05,15,1698.8,0,36.8,,36.8,,
2018-02-05,15,1698.8,0,31.35,31.3,,,31.4
2018-02-05,16,1731.1,0,36.04666666666667,,36.04666666666667,,
2018-02-05,16,1731.1,0,31.05,31.0,,,31.1
2018-02-05,17,1677.2,0,35.29333333333333,,35.29333333333333,,
2018-02-05,17,1677.2,0,30.45,30.5,,,30.4
2018-02-05,18,1616.9,0,34.54,,34.54,,
2018-02-05,18,1616.9,0,29.5,29.5,,,29.5
2018-02-05,19,1546.9,0,33.78666666666666,,33.78666666666666,,
2018-02-05,19,1546.9,0,28.35,28.3,,,28.4
2018-02-05,20,1868.94,0,33.03333333333333,,33.03333333333333,,
2018-02-05,20,1868.94,0,27.9,27.8,,,28.0
2018-02-05,21,1882.57,0,32.28,,32.28,,
2018-02-05,21,1882.57,0,27.75,27.6,,,27.9
2018-02-05,22,1850.4,0,31.526666666666664,,31.526666666666664,,
2018-02-05,22,1850.4,0,27.65,27.5,,,27.8
2018-02-05,23,1851.5,0,30.773333333333333,,30.773333333333333,,
2018-02-05,23,1851.5,0,27.35,27.2,,,27.5
2018-02-05,24,1820.7,0,30.02,,30.02,,
2018-02-05,24,1820.7,0,27.1,26.9,,,27.3
2018-02-06,1,1781.7,0,29.06666666666667,,29.06666666666667,,
2018-02-06,1,1781.7,0,27.15,26.9,,,27.4
2018-02-06,2,1672.01,0,28.37333333333333,,28.37333333333333,,
2018-02-06,2,1672.01,0,27.15,26.9,,,27.4
2018-02-06,3,1618.79,0,27.68,,27.68,,
2018-02-06,3,1618.79,0,26.9,26.7,,,27.1
2018-02-06,4,1634.43,0,26.986666666666668,,26.986666666666668,,
2018-02-06,4,1634.43,0,26.75,26.5,,,27.0
2018-02-06,5,1554.75,0,26.293333333333333,,26.293333333333333,,
2018-02-06,5,1554.75,0,26.7,26.5,,,26.9
2018-02-06,6,1577.24,0,25.6,,25.6,,
2018-02-06,6,1577.24,0,26.5,26.4,,,26.6
2018-02-06,7,1611.1,0,27.405941047736075,,27.405941047736075,,
2018-02-06,7,1611.1,0,26.45,26.4,,,26.5
2018-02-06,8,1424.97,0,29.157009490586955,,29.157009490586955,,
2018-02-06,8,1424.97,0,26.75,26.6,,,26.9
2018-02-06,9,1391.88,0,30.8,,30.8,,
2018-02-06,9,1391.88,0,27.65,27.4,,,27.9
2018-02-06,10,1350.95,0,32.28499114074001,,32.28499114074001,,
2018-02-06,10,1350.95,0,29.0,28.8,,,29.2
2018-02-06,11,1395.47,0,33.56686220843737,,33.56686220843737,,
2018-02-06,11,1395.47,0,30.65,30.7,,,30.6
2018-02-06,12,1394.22,0,34.606664199358164,,34.606664199358164,,
2018-02-06,12,1394.22,0,31.0,30.9,,,31.1
2018-02-06,13,1419.69,0,35.37280325617345,,35.37280325617345,,
2018-02-06,13,1419.69,0,30.9,31.1,,,30.7
2018-02-06,14,1435.62,0,35.84200063132696,,35.84200063132696,,
2018-02-06,14,1435.62,0,30.6,31.1,,,30.1
2018-02-06,15,1455.49,0,36.0,,36.0,,
2018-02-06,15,1455.49,0,30.6,30.6,,,30.6
2018-02-06,16,1460.5,0,35.306666666666665,,35.306666666666665,,
2018-02-06,16,1460.5,0,30.299999999999997,30.2,,,30.4
2018-02-06,17,1480.16,0,34.61333333333333,,34.61333333333333,,
2018-02-06,17,1480.16,0,29.75,29.8,,,29.7
2018-02-06,18,1523.75,0,33.92,,33.92,,
2018-02-06,18,1523.75,0,28.85,28.8,,,28.9
2018-02-06,19,1496.4,0,33.22666666666667,,33.22666666666667,,
2018-02-06,19,1496.4,0,28.05,28.0,,,28.1
2018-02-06,20,1799.22,0,32.53333333333333,,32.53333333333333,,
2018-02-06,20,1799.22,0,27.65,27.5,,,27.8
2018-02-06,21,1873.41,0,31.84,,31.84,,
2018-02-06,21,1873.41,0,27.4,27.3,,,27.5
2018-02-06,22,1872.01,0,31.14666666666667,,31.14666666666667,,
2018-02-06,22,1872.01,0,27.25,27.1,,,27.4
2018-02-06,23,1839.61,0,30.453333333333333,,30.453333333333333,,
2018-02-06,23,1839.61,0,27.1,26.9,,,27.3
2018-02-06,24,1728.46,0,29.76,,29.76,,
2018-02-06,24,1728.46,0,26.9,26.7,,,27.1
2018-02-07,1,1678.34,0,28.366666666666667,,,28.366666666666667,
2018-02-07,1,1678.34,0,26.95,26.7,,,27.2
2018-02-07,2,1682.1,0,27.99333333333333,,,27.99333333333333,
2018-02-07,2,1682.1,0,26.85,26.6,,,27.1
2018-02-07,3,1583.1,0,27.62,,,27.62,
2018-02-07,3,1583.1,0,26.65,26.4,,,26.9
2018-02-07,4,1629.0,0,27.246666666666663,,,27.246666666666663,
2018-02-07,4,1629.0,0,26.45,26.2,,,26.7
2018-02-07,5,1500.4,0,26.87333333333333,,,26.87333333333333,
2018-02-07,5,1500.4,0,26.25,26.0,,,26.5
2018-02-07,6,1564.1,0,26.5,,,26.5,
2018-02-07,6,1564.1,0,26.15,25.9,,,26.4
2018-02-07,7,1635.6,0,27.47242979493481,,,27.47242979493481,
2018-02-07,7,1635.6,0,26.1,25.9,,,26.3
2018-02-07,8,1394.9,0,28.415312802623745,,,28.415312802623745,
2018-02-07,8,1394.9,0,26.25,26.0,,,26.5
2018-02-07,9,1413.8,0,29.3,,,29.3,
2018-02-07,9,1413.8,0,27.35,27.1,,,27.6
2018-02-07,10,1574.6,0,30.09961061424462,,,30.09961061424462,
2018-02-07,10,1574.6,0,28.950000000000003,28.8,,,29.1
2018-02-07,11,1613.3,0,30.78984888146628,,,30.78984888146628,
2018-02-07,11,1613.3,0,30.6,30.5,,,30.7
2018-02-07,12,1604.4,0,31.34974226119286,,,31.34974226119286,
2018-02-07,12,1604.4,0,31.25,31.3,,,31.2
2018-02-07,13,1651.4,0,31.76227867640109,,,31.76227867640109,
2018-02-07,13,1651.4,0,31.8,32.2,,,31.4
2018-02-07,14,1618.9,0,32.01492341686836,,,32.01492341686836,
2018-02-07,14,1618.9,0,31.75,32.2,,,31.3
2018-02-07,15,1629.0,0,32.1,,,32.1,
2018-02-07,15,1629.0,0,31.299999999999997,31.4,,,31.2
2018-02-07,16,1540.4,0,31.726666666666667,,,31.726666666666667,
2018-02-07,16,1540.4,0,30.950000000000003,30.8,,,31.1
2018-02-07,17,1599.0,0,31.35333333333333,,,31.35333333333333,
2018-02-07,17,1599.0,0,29.85,30.2,,,29.5
2018-02-07,18,1541.9,0,30.98,,,30.98,
2018-02-07,18,1541.9,0,29.25,29.5,,,29.0
2018-02-07,19,1570.3,0,30.60666666666667,,,30.60666666666667,
2018-02-07,19,1570.3,0,28.45,28.5,,,28.4
2018-02-07,20,1872.93,0,30.23333333333333,,,30.23333333333333,
2018-02-07,20,1872.93,0,28.1,28.1,,,28.1
2018-02-07,21,1913.51,0,29.86,,,29.86,
2018-02-07,21,1913.51,0,27.95,27.9,,,28.0
2018-02-07,22,1982.7,0,29.486666666666668,,,29.486666666666668,
2018-02-07,22,1982.7,0,27.75,27.6,,,27.9
2018-02-07,23,1904.9,0,29.113333333333333,,,29.113333333333333,
2018-02-07,23,1904.9,0,27.65,27.5,,,27.8
2018-02-07,24,1840.4,0,28.74,,,28.74,
2018-02-07,24,1840.4,0,27.4,27.2,,,27.6
2018-02-08,1,1752.1,0,28.700000000000003,,28.96666666666667,28.433333333333334,
2018-02-08,1,1752.1,0,27.3,27.1,,,27.5
2018-02-08,2,1673.7,0,28.099999999999998,,28.17333333333333,28.026666666666667,
2018-02-08,2,1673.7,0,27.25,27.0,,,27.5
2018-02-08,3,1566.6,0,27.5,,27.38,27.62,
2018-02-08,3,1566.6,0,26.95,26.7,,,27.2
2018-02-08,4,1601.7,0,26.9,,26.586666666666662,27.21333333333333,
2018-02-08,4,1601.7,0,26.75,26.5,,,27.0
2018-02-08,5,1583.7,0,26.299999999999997,,25.793333333333333,26.806666666666665,
2018-02-08,5,1583.7,0,26.6,26.4,,,26.8
2018-02-08,6,1585.7,0,25.7,,25.0,26.4,
2018-02-08,6,1585.7,0,26.4,26.2,,,26.6
2018-02-08,7,1665.3,0,27.262833599002374,,27.06641331423647,27.459253883768277,
2018-02-08,7,1665.3,0,26.2,26.0,,,26.4
2018-02-08,8,1454.4,0,28.77818128993102,,29.070039705575457,28.48632287428658,
2018-02-08,8,1454.4,0,26.3,26.0,,,26.6
2018-02-08,9,1430.7,0,30.2,,30.95,29.45,
2018-02-08,9,1430.7,0,27.8,27.6,,,28.0
2018-02-08,10,1520.6,0,31.48508848717885,,32.649172555269814,30.32100441908789,
2018-02-08,10,1520.6,0,29.3,29.1,,,29.5
2018-02-08,11,1553.8,0,32.5943999880708,,34.115928873115834,31.072871103025765,
2018-02-08,11,1553.8,0,30.950000000000003,30.8,,,31.1
2018-02-08,12,1596.6,0,33.49422863405995,,35.30570230503482,31.682754963085078,
2018-02-08,12,1596.6,0,31.7,31.4,,,32.0
2018-02-08,13,1636.9,0,34.15723358707318,,36.18234218735231,32.13212498679404,
2018-02-08,13,1636.9,0,31.05,31.1,,,31.0
2018-02-08,14,1624.0,0,34.56326977710988,,36.71921226084528,32.40732729337447,
2018-02-08,14,1624.0,0,31.8,31.8,,,31.8
2018-02-08,15,1656.6,0,34.7,,36.9,32.5,
2018-02-08,15,1656.6,0,30.950000000000003,30.8,,,31.1
2018-02-08,16,1646.0,0,34.1,,36.10666666666667,32.093333333333334,
2018-02-08,16,1646.0,0,30.7,30.9,,,30.5
2018-02-08,17,1613.5,0,33.5,,35.31333333333333,31.686666666666667,
2018-02-08,17,1613.5,0,29.85,30.0,,,29.7
2018-02-08,18,1670.7,0,32.900000000000006,,34.52,31.28,
2018-02-08,18,1670.7,0,29.1,29.0,,,29.2
2018-02-08,19,1712.2,0,32.3,,33.72666666666667,30.87333333333333,
2018-02-08,19,1712.2,0,28.299999999999997,28.2,,,28.4
2018-02-08,20,1955.1,0,31.700000000000003,,32.93333333333334,30.46666666666667,
2018-02-08,20,1955.1,0,27.9,27.8,,,28.0
2018-02-08,21,1960.32,0,31.1,,32.14,30.06,
2018-02-08,21,1960.32,0,27.65,27.5,,,27.8
2018-02-08,22,2059.4,0,30.499999999999996,,31.346666666666664,29.65333333333333,
2018-02-08,22,2059.4,0,27.5,27.4,,,27.6
2018-02-08,23,2028.2,0,29.9,,30.55333333333333,29.246666666666663,
2018-02-08,23,2028.2,0,27.4,27.2,,,27.6
2018-02-08,24,2010.7,0,29.3,,29.76,28.84,
2018-02-08,24,2010.7,0,27.2,27.0,,,27.4
2018-02-09,1,1896.5,0,28.733333333333334,,28.800000000000004,28.666666666666668,
2018-02-09,1,1896.5,0,27.45,27.2,,,27.7
2018-02-09,2,1710.86,0,28.186666666666667,,28.06,28.313333333333333,
2018-02-09,2,1710.86,0,27.3,27.1,,,27.5
2018-02-09,3,1628.41,0,27.64,,27.32,27.96,
2018-02-09,3,1628.41,0,27.2,27.0,,,27.4
2018-02-09,4,1617.57,0,27.093333333333334,,26.58,27.606666666666666,
2018-02-09,4,1617.57,0,26.950000000000003,26.8,,,27.1
2018-02-09,5,1620.08,0,26.546666666666667,,25.84,27.25333333333333,
2018-02-09,5,1620.08,0,26.9,26.8,,,27.0
2018-02-09,6,1623.91,0,26.0,,25.1,26.9,
2018-02-09,6,1623.91,0,26.8,26.6,,,27.0
2018-02-09,7,1669.55,0,27.42391505686883,,27.02749477210293,27.82033534163473,
2018-02-09,7,1669.55,0,26.75,26.5,,,27.0
2018-02-09,8,1484.19,0,28.804565175270483,,28.896423590914925,28.712706759626045,
2018-02-09,8,1484.19,0,26.950000000000003,26.8,,,27.1
2018-02-09,9,1467.77,0,30.1,,30.65,29.55,
2018-02-09,9,1467.77,0,27.8,27.6,,,28.0
2018-02-09,10,1642.53,0,31.270858399429624,,32.23494246752059,30.30677433133866,
2018-02-09,10,1642.53,0,29.3,29.1,,,29.5
2018-02-09,11,1585.64,0,32.281564433575625,,33.60309331862066,30.960035548530584,
2018-02-09,11,1585.64,0,31.0,31.0,,,31.0
2018-02-09,12,1593.04,0,33.1014083110324,,34.712881982007275,31.489934640057527,
2018-02-09,12,1593.04,0,31.45,31.5,,,31.4
2018-02-09,13,1571.22,0,33.70547949044445,,35.53058809072358,31.88037089016532,
2018-02-09,13,1571.22,0,31.5,31.5,,,31.5
2018-02-09,14,1476.25,0,34.07542357470011,,36.03136605843551,32.119481090964705,
2018-02-09,14,1476.25,0,30.55,30.5,,,30.6
2018-02-09,15,1540.91,0,34.2,,36.2,32.2,
2018-02-09,15,1540.91,0,29.65,29.5,,,29.8
2018-02-09,16,1525.41,0,33.653333333333336,,35.46,31.84666666666667,
2018-02-09,16,1525.41,0,30.549999999999997,30.4,,,30.7
2018-02-09,17,1477.91,0,33.10666666666667,,34.72,31.493333333333336,
2018-02-09,17,1477.91,0,29.4,29.5,,,29.3
2018-02-09,18,1530.83,0,32.56,,33.980000000000004,31.14,
2018-02-09,18,1530.83,0,28.55,28.5,,,28.6
2018-02-09,19,1431.32,0,32.013333333333335,,33.24,30.78666666666667,
2018-02-09,19,1431.32,0,27.799999999999997,27.7,,,27.9
2018-02-09,20,2006.66,0,31.46666666666667,,32.5,30.433333333333337,
2018-02-09,20,2006.66,0,27.6,27.4,,,27.8
2018-02-09,21,2082.4,0,30.92,,31.76,30.08,
2018-02-09,21,2082.4,0,27.450000000000003,27.3,,,27.6
2018-02-09,22,2080.45,0,30.373333333333335,,31.020000000000003,29.726666666666667,
2018-02-09,22,2080.45,0,27.35,27.2,,,27.5
2018-02-09,23,2054.73,0,29.826666666666668,,30.28,29.37333333333333,
2018-02-09,23,2054.73,0,27.35,27.2,,,27.5
2018-02-09,24,1992.69,0,29.28,,29.540000000000003,29.02,
2018-02-09,24,1992.69,0,27.25,27.0,,,27.5
2018-02-10,1,1954.06,0,27.049999999999997,26.7,,,27.4
2018-02-10,2,1819.8,0,26.7,26.4,,,27.0
2018-02-10,3,1764.1,0,26.4,26.1,,,26.7
2018-02-10,4,1763.7,0,26.15,25.9,,,26.4
2018-02-10,5,1755.0,0,25.950000000000003,25.8,,,26.1
2018-02-10,6,1746.4,0,25.8,25.6,,,26.0
2018-02-10,7,1737.3,0,25.700000000000003,25.6,,,25.8
2018-02-10,8,1568.6,0,26.0,25.8,,,26.2
2018-02-10,9,1545.2,0,27.25,26.9,,,27.6
2018-02-10,10,1513.9,0,28.8,28.5,,,29.1
2018-02-10,11,1474.9,0,30.4,30.2,,,30.6
2018-02-10,12,1481.9,0,31.5,31.5,,,31.5
2018-02-10,13,1474.9,0,31.6,31.9,,,31.3
2018-02-10,14,1428.5,0,31.95,32.0,,,31.9
2018-02-10,15,1427.1,0,30.55,30.6,,,30.5
2018-02-10,16,1420.5,0,30.65,30.4,,,30.9
2018-02-10,17,1470.6,0,30.299999999999997,30.2,,,30.4
2018-02-10,18,1439.7,0,29.35,29.4,,,29.3
2018-02-10,19,1433.8,0,28.4,28.3,,,28.5
2018-02-10,20,1871.88,0,27.95,27.9,,,28.0
2018-02-10,21,1869.09,0,27.75,27.6,,,27.9
2018-02-10,22,1863.5,0,27.65,27.5,,,27.8
2018-02-10,23,1875.7,0,27.4,27.2,,,27.6
2018-02-10,24,1931.5,0,27.25,27.0,,,27.5
2018-02-11,1,1798.0,0,27.96666666666667,,28.666666666666668,27.26666666666667,
2018-02-11,1,1798.0,0,27.45,27.2,,,27.7
2018-02-11,2,1681.8,0,27.383333333333333,,27.933333333333334,26.833333333333336,
2018-02-11,2,1681.8,0,27.25,27.0,,,27.5
2018-02-11,3,1660.8,0,26.799999999999997,,27.2,26.4,
2018-02-11,3,1660.8,0,27.05,26.8,,,27.3
2018-02-11,4,1600.1,0,26.21666666666667,,26.466666666666665,25.96666666666667,
2018-02-11,4,1600.1,0,26.8,26.5,,,27.1
2018-02-11,5,1615.3,0,25.633333333333333,,25.73333333333333,25.53333333333333,
2018-02-11,5,1615.3,0,26.6,26.2,,,27.0
2018-02-11,6,1569.8,0,25.05,,25.0,25.1,
2018-02-11,6,1569.8,0,26.3,25.8,,,26.8
2018-02-11,7,1669.2,0,26.56942155458564,,26.910129954336234,26.22871315483505,
2018-02-11,7,1669.2,0,26.2,25.9,,,26.5
2018-02-11,8,1370.1,0,28.042676254099604,,28.762221576582355,27.32313093161685,
2018-02-11,8,1370.1,0,26.3,26.0,,,26.6
2018-02-11,9,1303.9,0,29.425,,30.5,28.35,
2018-02-11,9,1303.9,0,27.25,27.0,,,27.5
2018-02-11,10,1216.0,0,30.67439158475722,,32.07066370655193,29.278119462962508,
2018-02-11,10,1216.0,0,28.3,27.8,,,28.8
2018-02-11,11,1212.3,0,31.75288887729106,,33.42648887430876,30.07928888027336,
2018-02-11,11,1212.3,0,29.35,28.9,,,29.8
2018-02-11,12,1209.2,0,32.62772228311384,,34.52627944162882,30.72916512459885,
2018-02-11,12,1209.2,0,30.35,29.9,,,30.8
2018-02-11,13,1271.5,0,33.272310431876704,,35.336618828644994,31.208002035108407,
2018-02-11,13,1271.5,0,31.6,31.8,,,31.4
2018-02-11,14,1286.7,0,33.66706783885682,,35.83288528313429,31.501250394579355,
2018-02-11,14,1286.7,0,31.0,31.5,,,30.5
2018-02-11,15,1347.2,0,33.8,,36.0,31.6,
2018-02-11,15,1347.2,0,30.5,30.6,,,30.4
2018-02-11,16,1430.4,0,33.21666666666667,,35.266666666666666,31.166666666666668,
2018-02-11,16,1430.4,0,30.5,31.0,,,30.0
2018-02-11,17,1459.7,0,32.63333333333333,,34.53333333333333,30.73333333333333,
2018-02-11,17,1459.7,0,29.2,29.2,,,29.2
2018-02-11,18,1435.9,0,32.05,,33.8,30.3,
2018-02-11,18,1435.9,0,28.85,28.9,,,28.8
2018-02-11,19,1428.5,0,31.466666666666665,,33.06666666666666,29.866666666666667,
2018-02-11,19,1428.5,0,27.9,27.8,,,28.0
2018-02-11,20,1733.28,0,30.883333333333336,,32.333333333333336,29.433333333333337,
2018-02-11,20,1733.28,0,27.700000000000003,27.6,,,27.8
2018-02-11,21,1840.11,0,30.3,,31.6,29.0,
2018-02-11,21,1840.11,0,27.5,27.4,,,27.6
2018-02-11,22,1890.9,0,29.71666666666667,,30.866666666666667,28.56666666666667,
2018-02-11,22,1890.9,0,27.35,27.2,,,27.5
2018-02-11,23,1885.0,0,29.133333333333333,,30.133333333333333,28.133333333333333,
2018-02-11,23,1885.0,0,27.2,26.9,,,27.5
2018-02-11,24,1843.4,0,28.55,,29.4,27.700000000000003,
2018-02-11,24,1843.4,0,26.85,26.6,,,27.1
2018-02-12,1,1728.8,0,28.76666666666667,,28.76666666666667,,
2018-02-12,1,1728.8,0,27.25,27.1,,,27.4
2018-02-12,2,1603.2,0,27.933333333333337,,27.933333333333337,,
2018-02-12,2,1603.2,0,27.2,27.0,,,27.4
2018-02-12,3,1623.8,0,27.1,,27.1,,
2018-02-12,3,1623.8,0,26.9,26.6,,,27.2
2018-02-12,4,1565.7,0,26.26666666666667,,26.26666666666667,,
2018-02-12,4,1565.7,0,26.7,26.5,,,26.9
2018-02-12,5,1473.8,0,25.433333333333334,,25.433333333333334,,
2018-02-12,5,1473.8,0,26.5,26.2,,,26.8
2018-02-12,6,1481.7,0,24.6,,24.6,,
2018-02-12,6,1481.7,0,26.2,25.9,,,26.5
2018-02-12,7,1474.8,0,26.77060222083663,,26.77060222083663,,
2018-02-12,7,1474.8,0,26.1,25.8,,,26.4
2018-02-12,8,1387.8,0,28.87525179157086,,28.87525179157086,,
2018-02-12,8,1387.8,0,26.25,26.0,,,26.5
2018-02-12,9,1413.3,0,30.85,,30.85,,
2018-02-12,9,1413.3,0,27.25,27.0,,,27.5
2018-02-12,10,1497.6,0,32.63484512108174,,32.63484512108174,,
2018-02-12,10,1497.6,0,28.450000000000003,28.1,,,28.8
2018-02-12,11,1474.2,0,34.175555538987226,,34.175555538987226,,
2018-02-12,11,1474.2,0,29.200000000000003,28.8,,,29.6
2018-02-12,12,1491.5,0,35.42531754730548,,35.42531754730548,,
2018-02-12,12,1491.5,0,30.0,30.0,,,30.0
2018-02-12,13,1524.1,0,36.34615775982385,,36.34615775982385,,
2018-02-12,13,1524.1,0,31.25,31.6,,,30.9
2018-02-12,14,1647.7,0,36.910096912652605,,36.910096912652605,,
2018-02-12,14,1647.7,0,30.25,30.6,,,29.9
2018-02-12,15,1641.1,0,37.1,,37.1,,
2018-02-12,15,1641.1,0,30.75,30.9,,,30.6
2018-02-12,16,1548.8,0,36.266666666666666,,36.266666666666666,,
2018-02-12,16,1548.8,0,30.9,30.8,,,31.0
2018-02-12,17,1601.8,0,35.43333333333334,,35.43333333333334,,
2018-02-12,17,1601.8,0,29.95,30.0,,,29.9
2018-02-12,18,1506.1,0,34.6,,34.6,,
2018-02-12,18,1506.1,0,29.299999999999997,29.4,,,29.2
2018-02-12,19,1541.5,0,33.766666666666666,,33.766666666666666,,
2018-02-12,19,1541.5,0,28.4,28.3,,,28.5
2018-02-12,20,1920.8,0,32.93333333333334,,32.93333333333334,,
2018-02-12,20,1920.8,0,28.1,28.0,,,28.2
2018-02-12,21,1974.66,0,32.1,,32.1,,
2018-02-12,21,1974.66,0,27.9,27.8,,,28.0
2018-02-12,22,2001.2,0,31.26666666666667,,31.26666666666667,,
2018-02-12,22,2001.2,0,27.65,27.5,,,27.8
2018-02-12,23,2002.5,0,30.433333333333334,,30.433333333333334,,
2018-02-12,23,2002.5,0,27.3,27.1,,,27.5
2018-02-12,24,1850.3,0,29.6,,29.6,,
2018-02-12,24,1850.3,0,27.25,27.0,,,27.5
2018-02-13,1,1791.6,0,28.8,,28.8,,
2018-02-13,1,1791.6,0,27.15,26.9,,,27.4
2018-02-13,2,1676.9,0,27.98,,27.98,,
2018-02-13,2,1676.9,0,27.1,26.9,,,27.3
2018-02-13,3,1619.1,0,27.16,,27.16,,
2018-02-13,3,1619.1,0,26.950000000000003,26.8,,,27.1
2018-02-13,4,1631.5,0,26.34,,26.34,,
2018-02-13,4,1631.5,0,26.75,26.5,,,27.0
2018-02-13,5,1652.9,0,25.52,,25.52,,
2018-02-13,5,1652.9,0,26.35,26.0,,,26.7
2018-02-13,6,1657.8,0,24.7,,24.7,,
2018-02-13,6,1657.8,0,26.2,25.9,,,26.5
2018-02-13,7,1645.5,0,26.83587258530324,,26.83587258530324,,
2018-02-13,7,1645.5,0,26.2,25.9,,,26.5
2018-02-13,8,1458.3,0,28.906847762905723,,28.906847762905723,,
2018-02-13,8,1458.3,0,26.4,26.1,,,26.7
2018-02-13,9,1398.5,0,30.85,,30.85,,
2018-02-13,9,1398.5,0,27.3,27.0,,,27.6
2018-02-13,10,1497.07,0,32.60628759914443,,32.60628759914443,,
2018-02-13,10,1497.07,0,28.4,28.2,,,28.6
2018-02-13,11,1517.5,0,34.122346650363426,,34.122346650363426,,
2018-02-13,11,1517.5,0,29.4,29.0,,,29.8
2018-02-13,12,1533.9,0,35.3521124665486,,35.3521124665486,,
2018-02-13,12,1533.9,0,29.9,29.6,,,30.2
2018-02-13,13,1538.3,0,36.25821923566667,,36.25821923566667,,
2018-02-13,13,1538.3,0,29.6,28.9,,,30.3
2018-02-13,14,1587.7,0,36.81313536205016,,36.81313536205016,,
2018-02-13,14,1587.7,0,29.8,30.0,,,29.6
2018-02-13,15,1574.4,0,37.0,,37.0,,
2018-02-13,15,1574.4,0,30.55,30.8,,,30.3
2018-02-13,16,1614.7,0,36.18,,36.18,,
2018-02-13,16,1614.7,0,29.6,28.6,,,30.6
2018-02-13,17,1671.6,0,35.36,,35.36,,
2018-02-13,17,1671.6,0,29.3,29.5,,,29.1
2018-02-13,18,1587.1,0,34.54,,34.54,,
2018-02-13,18,1587.1,0,28.8,28.6,,,29.0
2018-02-13,19,1607.5,0,33.72,,33.72,,
2018-02-13,19,1607.5,0,27.950000000000003,27.8,,,28.1
2018-02-13,20,1956.68,0,32.9,,32.9,,
2018-02-13,20,1956.68,0,27.6,27.4,,,27.8
2018-02-13,21,2022.05,0,32.08,,32.08,,
2018-02-13,21,2022.05,0,27.4,27.2,,,27.6
2018-02-13,22,2036.9,0,31.26,,31.26,,
2018-02-13,22,2036.9,0,27.25,27.0,,,27.5
2018-02-13,23,2064.9,0,30.44,,30.44,,
2018-02-13,23,2064.9,0,27.2,27.0,,,27.4
2018-02-13,24,1815.0,0,29.62,,29.62,,
2018-02-13,24,1815.0,0,27.05,26.8,,,27.3
2018-02-14,1,1739.9,0,28.1,,28.700000000000003,27.5,
2018-02-14,1,1739.9,0,27.0,26.8,,,27.2
2018-02-14,2,1565.2,0,27.48,,27.880000000000003,27.08,
2018-02-14,2,1565.2,0,27.0,26.7,,,27.3
2018-02-14,3,1555.7,0,26.86,,27.06,26.66,
2018-02-14,3,1555.7,0,26.75,26.4,,,27.1
2018-02-14,4,1650.3,0,26.24,,26.24,26.24,
2018-02-14,4,1650.3,0,26.5,26.2,,,26.8
2018-02-14,5,1571.7,0,25.62,,25.42,25.82,
2018-02-14,5,1571.7,0,26.1,25.8,,,26.4
2018-02-14,6,1699.1,0,25.0,,24.6,25.4,
2018-02-14,6,1699.1,0,25.85,25.6,,,26.1
2018-02-14,7,1723.5,0,26.614928052302453,,26.735872585303245,26.49398351930166,
2018-02-14,7,1723.5,0,25.8,25.5,,,26.1
2018-02-14,8,1500.5,0,28.18078733292872,,28.80684776290573,27.55472690295171,
2018-02-14,8,1500.5,0,26.1,25.9,,,26.3
2018-02-14,9,1447.6,0,29.65,,30.75,28.55,
2018-02-14,9,1447.6,0,27.2,26.9,,,27.5
2018-02-14,10,1462.1,0,30.97792477008481,,32.50628759914443,29.449561941025195,
2018-02-14,10,1462.1,0,28.9,28.6,,,29.2
2018-02-14,11,1478.8,0,32.12421332100649,,34.02234665036343,30.226079991649563,
2018-02-14,11,1478.8,0,30.8,30.6,,,31.0
2018-02-14,12,1530.7,0,33.054036255195285,,35.2521124665486,30.85596004384196,
2018-02-14,12,1530.7,0,31.8,31.6,,,32.0
2018-02-14,13,1542.3,0,33.73914137330895,,36.15821923566667,31.320063510951226,
2018-02-14,13,1542.3,0,32.3,32.3,,,32.3
2018-02-14,14,1523.8,0,34.158712103013535,,36.71313536205016,31.60428884397691,
2018-02-14,14,1523.8,0,31.25,31.2,,,31.3
2018-02-14,15,1617.1,0,34.3,,36.9,31.7,
2018-02-14,15,1617.1,0,30.75,30.5,,,31.0
2018-02-14,16,1483.0,0,33.68,,36.08,31.28,
2018-02-14,16,1483.0,0,30.6,30.6,,,30.6
2018-02-14,17,1583.4,0,33.06,,35.26,30.86,
2018-02-14,17,1583.4,0,29.7,29.5,,,29.9
2018-02-14,18,1646.0,0,32.44,,34.44,30.44,
2018-02-14,18,1646.0,0,29.05,29.0,,,29.1
2018-02-14,19,1569.2,0,31.82,,33.62,30.02,
2018-02-14,19,1569.2,0,28.0,28.0,,,28.0
2018-02-14,20,1956.33,0,31.2,,32.8,29.6,
2018-02-14,20,1956.33,0,27.65,27.4,,,27.9
2018-02-14,21,1970.07,0,30.58,,31.98,29.18,
2018-02-14,21,1970.07,0,27.6,27.4,,,27.8
2018-02-14,22,2000.3,0,29.96,,31.16,28.76,
2018-02-14,22,2000.3,0,27.55,27.3,,,27.8
2018-02-14,23,1938.8,0,29.34,,30.34,28.34,
2018-02-14,23,1938.8,0,27.5,27.2,,,27.8
2018-02-14,24,1872.6,0,28.72,,29.52,27.92,
2018-02-14,24,1872.6,0,27.4,27.2,,,27.6
2018-02-15,1,1711.3,0,27.3,27.0,,,27.6
2018-02-15,2,1706.2,0,27.25,27.0,,,27.5
2018-02-15,3,1621.5,0,27.05,26.8,,,27.3
2018-02-15,4,1608.1,0,26.9,26.6,,,27.2
2018-02-15,5,1560.2,0,26.7,26.4,,,27.0
2018-02-15,6,1587.3,0,26.35,26.1,,,26.6
2018-02-15,7,1624.5,0,26.1,25.9,,,26.3
2018-02-15,8,1451.7,0,26.450000000000003,26.3,,,26.6
2018-02-15,9,1441.5,0,27.65,27.4,,,27.9
2018-02-15,10,1596.3,0,29.2,28.9,,,29.5
2018-02-15,11,1563.3,0,30.65,30.3,,,31.0
2018-02-15,12,1569.9,0,31.85,31.7,,,32.0
2018-02-15,13,1522.8,0,31.4,31.5,,,31.3
2018-02-15,14,1466.3,0,30.8,30.8,,,30.8
2018-02-15,15,1476.3,0,30.5,30.4,,,30.6
2018-02-15,16,1529.8,0,30.65,30.5,,,30.8
2018-02-15,17,1556.0,0,30.1,30.1,,,30.1
2018-02-15,18,1737.3,0,29.25,29.1,,,29.4
2018-02-15,19,1774.6,0,28.299999999999997,28.2,,,28.4
2018-02-15,20,2012.28,0,27.85,27.8,,,27.9
2018-02-15,21,2136.53,0,27.65,27.5,,,27.8
2018-02-15,22,2030.1,0,27.5,27.3,,,27.7
2018-02-15,23,1968.7,0,27.3,27.1,,,27.5
2018-02-15,24,1832.9,0,27.1,26.9,,,27.3
2018-02-16,1,1699.2,0,28.316666666666663,,28.9,27.73333333333333,
2018-02-16,1,1699.2,0,27.0,26.7,,,27.3
2018-02-16,2,1618.0,0,27.693333333333335,,28.12,27.266666666666666,
2018-02-16,2,1618.0,0,27.0,26.7,,,27.3
2018-02-16,3,1633.7,0,27.07,,27.34,26.8,
2018-02-16,3,1633.7,0,26.8,26.5,,,27.1
2018-02-16,4,1576.9,0,26.446666666666665,,26.56,26.33333333333333,
2018-02-16,4,1576.9,0,26.5,26.1,,,26.9
2018-02-16,5,1587.8,0,25.82333333333333,,25.78,25.866666666666664,
2018-02-16,5,1587.8,0,26.2,25.9,,,26.5
2018-02-16,6,1609.3,0,25.2,,25.0,25.4,
2018-02-16,6,1609.3,0,25.9,25.6,,,26.2
2018-02-16,7,1630.5,0,26.8236104611858,,27.03168367870309,26.615537243668516,
2018-02-16,7,1630.5,0,25.75,25.4,,,26.1
2018-02-16,8,1428.7,0,28.397888340095,,29.001635676910325,27.79414100327968,
2018-02-16,8,1428.7,0,26.0,25.8,,,26.2
2018-02-16,9,1470.6,0,29.875,,30.85,28.9,
2018-02-16,9,1470.6,0,27.5,27.3,,,27.7
2018-02-16,10,1543.5,0,31.210064150569142,,32.52061503333251,29.899513267805773,
2018-02-16,10,1543.5,0,29.1,28.8,,,29.4
2018-02-16,11,1495.5,0,32.362515543162445,,33.96271998449205,30.762311101832843,
2018-02-16,11,1495.5,0,30.4,30.3,,,30.5
2018-02-16,12,1563.2,0,33.2973375253845,,35.132497224277934,31.462177826491068,
2018-02-16,12,1563.2,0,31.2,31.4,,,31.0
2018-02-16,13,1573.9,0,33.98612600434824,,35.99440366319513,31.97784834550136,
2018-02-16,13,1573.9,0,31.65,31.7,,,31.6
2018-02-16,14,1511.7,0,34.407952490664144,,36.52225071024284,32.29365427108546,
2018-02-16,14,1511.7,0,32.349999999999994,32.3,,,32.4
2018-02-16,15,1561.4,0,34.55,,36.7,32.4,
2018-02-16,15,1561.4,0,31.0,31.3,,,30.7
2018-02-16,16,1543.1,0,33.92666666666666,,35.92,31.93333333333333,
2018-02-16,16,1543.1,0,30.65,30.5,,,30.8
2018-02-16,17,1557.7,0,33.303333333333335,,35.14,31.466666666666665,
2018-02-16,17,1557.7,0,30.0,30.0,,,30.0
2018-02-16,18,1571.3,0,32.68,,34.36,31.0,
2018-02-16,18,1571.3,0,29.3,29.3,,,29.3
2018-02-16,19,1669.3,0,32.05666666666667,,33.580000000000005,30.53333333333333,
2018-02-16,19,1669.3,0,28.25,28.2,,,28.3
2018-02-16,20,1884.99,0,31.433333333333334,,32.800000000000004,30.066666666666663,
2018-02-16,20,1884.99,0,27.85,27.8,,,27.9
2018-02-16,21,1948.51,0,30.810000000000002,,32.02,29.6,
2018-02-16,21,1948.51,0,27.65,27.5,,,27.8
2018-02-16,22,1938.5,0,30.186666666666667,,31.24,29.133333333333333,
2018-02-16,22,1938.5,0,27.6,27.5,,,27.7
2018-02-16,23,1939.8,0,29.563333333333333,,30.46,28.666666666666664,
2018-02-16,23,1939.8,0,27.4,27.2,,,27.6
2018-02-16,24,1811.2,0,28.939999999999998,,29.68,28.2,
2018-02-16,24,1811.2,0,27.25,27.0,,,27.5
2018-02-17,1,1719.7,0,28.616666666666664,,28.9,28.33333333333333,
2018-02-17,1,1719.7,0,27.3,27.1,,,27.5
2018-02-17,2,1665.4,0,28.013333333333335,,28.06,27.96666666666667,
2018-02-17,2,1665.4,0,27.25,27.0,,,27.5
2018-02-17,3,1621.2,0,27.41,,27.22,27.6,
2018-02-17,3,1621.2,0,27.1,26.9,,,27.3
2018-02-17,4,1582.1,0,26.806666666666665,,26.38,27.23333333333333,
2018-02-17,4,1582.1,0,26.8,26.5,,,27.1
2018-02-17,5,1582.6,0,26.203333333333333,,25.54,26.866666666666667,
2018-02-17,5,1582.6,0,26.7,26.5,,,26.9
2018-02-17,6,1592.1,0,25.6,,24.7,26.5,
2018-02-17,6,1592.1,0,26.65,26.5,,,26.8
2018-02-17,7,1658.4,0,27.17151600788572,,26.88796703860332,27.45506497716812,
2018-02-17,7,1658.4,0,26.450000000000003,26.3,,,26.6
2018-02-17,8,1426.8,0,28.6952822970973,,29.009453805903423,28.381110788291178,
2018-02-17,8,1426.8,0,26.85,26.7,,,27.0
2018-02-17,9,1449.5,0,30.125,,31.0,29.25,
2018-02-17,9,1449.5,0,27.85,27.7,,,28.0
2018-02-17,10,1360.4,0,31.41722786766318,,32.799123882050395,30.035331853275967,
2018-02-17,10,1360.4,0,29.35,29.2,,,29.5
2018-02-17,11,1442.7,0,32.532702210226745,,34.35215998329912,30.71324443715438,
2018-02-17,11,1442.7,0,30.9,30.9,,,30.9
2018-02-17,12,1443.2,0,33.43752990424917,,35.61192008768393,31.26313972081441,
2018-02-17,12,1443.2,0,31.3,31.3,,,31.3
2018-02-17,13,1488.5,0,34.10421821811247,,36.54012702190244,31.668309414322497,
2018-02-17,13,1488.5,0,31.85,32.0,,,31.7
2018-02-17,14,1487.7,0,34.512510164760485,,37.10857768795382,31.916442641567144,
2018-02-17,14,1487.7,0,32.05,32.4,,,31.7
2018-02-17,15,1483.3,0,34.65,,37.3,32.0,
2018-02-17,15,1483.3,0,30.5,30.4,,,30.6
2018-02-17,16,1464.8,0,34.04666666666667,,36.46,31.633333333333333,
2018-02-17,16,1464.8,0,30.7,31.0,,,30.4
2018-02-17,17,1496.4,0,33.44333333333333,,35.62,31.266666666666666,
2018-02-17,17,1496.4,0,30.05,30.1,,,30.0
2018-02-17,18,1509.9,0,32.84,,34.78,30.9,
2018-02-17,18,1509.9,0,29.05,29.1,,,29.0
2018-02-17,19,1504.9,0,32.236666666666665,,33.94,30.53333333333333,
2018-02-17,19,1504.9,0,28.4,28.3,,,28.5
2018-02-17,20,1896.61,0,31.633333333333333,,33.1,30.166666666666668,
2018-02-17,20,1896.61,0,27.95,27.9,,,28.0
2018-02-17,21,1933.06,0,31.03,,32.26,29.8,
2018-02-17,21,1933.06,0,27.799999999999997,27.7,,,27.9
2018-02-17,22,1964.4,0,30.42666666666667,,31.42,29.433333333333334,
2018-02-17,22,1964.4,0,27.65,27.5,,,27.8
2018-02-17,23,1939.7,0,29.82333333333333,,30.58,29.066666666666663,
2018-02-17,23,1939.7,0,27.3,27.1,,,27.5
2018-02-17,24,1881.9,0,29.22,,29.74,28.7,
2018-02-17,24,1881.9,0,27.049999999999997,26.9,,,27.2
2018-02-18,1,1747.3,0,28.0,,28.0,,
2018-02-18,1,1747.3,0,27.25,27.0,,,27.5
2018-02-18,2,1681.8,0,27.6,,27.6,,
2018-02-18,2,1681.8,0,26.8,26.6,,,27.0
2018-02-18,3,1660.8,0,27.2,,27.2,,
2018-02-18,3,1660.8,0,26.7,26.5,,,26.9
2018-02-18,4,1600.1,0,26.8,,26.8,,
2018-02-18,4,1600.1,0,26.35,26.1,,,26.6
2018-02-18,5,1615.3,0,26.4,,26.4,,
2018-02-18,5,1615.3,0,26.25,26.0,,,26.5
2018-02-18,6,1569.8,0,26.0,,26.0,,
2018-02-18,6,1569.8,0,26.1,25.9,,,26.3
2018-02-18,7,1669.2,0,27.04188906600158,,27.04188906600158,,
2018-02-18,7,1669.2,0,25.4,25.0,,,25.8
2018-02-18,8,1370.1,0,28.05212085995401,,28.05212085995401,,
2018-02-18,8,1370.1,0,25.549999999999997,25.2,,,25.9
2018-02-18,9,1303.9,0,29.0,,29.0,,
2018-02-18,9,1303.9,0,26.85,26.5,,,27.2
2018-02-18,10,1216.0,0,29.856725658119235,,29.856725658119235,,
2018-02-18,10,1216.0,0,27.799999999999997,27.7,,,27.9
2018-02-18,11,1212.3,0,30.59626665871387,,30.59626665871387,,
2018-02-18,11,1212.3,0,28.200000000000003,28.3,,,28.1
2018-02-18,12,1209.2,0,31.196152422706632,,31.196152422706632,,
2018-02-18,12,1209.2,0,28.6,28.8,,,28.4
2018-02-18,13,1271.5,0,31.63815572471545,,31.63815572471545,,
2018-02-18,13,1271.5,0,28.95,29.0,,,28.9
2018-02-18,14,1286.7,0,31.908846518073247,,31.908846518073247,,
2018-02-18,14,1286.7,0,28.4,28.6,,,28.2
2018-02-18,15,1347.2,0,32.0,,32.0,,
2018-02-18,15,1347.2,0,28.6,28.6,,,28.6
2018-02-18,16,1430.4,0,31.6,,31.6,,
2018-02-18,16,1430.4,0,28.05,27.5,,,28.6
2018-02-18,17,1459.7,0,31.2,,31.2,,
2018-02-18,17,1459.7,0,28.450000000000003,28.3,,,28.6
2018-02-18,18,1435.9,0,30.8,,30.8,,
2018-02-18,18,1435.9,0,28.2,28.0,,,28.4
2018-02-18,19,1428.5,0,30.4,,30.4,,
2018-02-18,19,1428.5,0,27.75,27.5,,,28.0
2018-02-18,20,1733.28,0,30.0,,30.0,,
2018-02-18,20,1733.28,0,27.2,26.9,,,27.5
2018-02-18,21,1840.11,0,29.6,,29.6,,
2018-02-18,21,1840.11,0,27.1,26.8,,,27.4
2018-02-18,22,1890.9,0,29.2,,29.2,,
2018-02-18,22,1890.9,0,26.8,26.5,,,27.1
2018-02-18,23,1885.0,0,28.8,,28.8,,
2018-02-18,23,1885.0,0,26.65,26.4,,,26.9
2018-02-18,24,1843.4,0,28.4,,28.4,,
2018-02-18,24,1843.4,0,26.15,25.8,,,26.5
2018-02-19,1,1728.8,0,26.15,,27.5,24.8,
2018-02-19,1,1728.8,0,26.7,26.5,,,26.9
2018-02-19,2,1475.51,0,25.42,,26.6,24.24,
2018-02-19,2,1475.51,0,26.45,26.2,,,26.7
2018-02-19,3,1421.11,0,24.689999999999998,,25.7,23.68,
2018-02-19,3,1421.11,0,26.35,26.1,,,26.6
2018-02-19,4,1419.11,0,23.96,,24.8,23.12,
2018-02-19,4,1419.11,0,26.3,26.0,,,26.6
2018-02-19,5,1455.66,0,23.229999999999997,,23.9,22.56,
2018-02-19,5,1455.66,0,25.95,25.5,,,26.4
2018-02-19,6,1490.96,0,22.5,,23.0,22.0,
2018-02-19,6,1490.96,0,25.85,25.5,,,26.2
2018-02-19,7,1530.52,0,24.40144754545289,,25.34425039850356,23.458644692402213,
2018-02-19,7,1530.52,0,25.65,25.3,,,26.0
2018-02-19,8,1392.68,0,26.245120569416073,,27.61727193489653,24.872969203935615,
2018-02-19,8,1392.68,0,26.05,25.8,,,26.3
2018-02-19,9,1339.03,0,27.975,,29.75,26.2,
2018-02-19,9,1339.03,0,27.4,27.0,,,27.8
2018-02-19,10,1509.94,0,29.538524326067606,,31.67763273076828,27.39941592136693,
2018-02-19,10,1509.94,0,29.15,28.8,,,29.5
2018-02-19,11,1445.44,0,30.888186652152807,,33.3415999821062,28.434773322199412,
2018-02-19,11,1445.44,0,30.45,30.2,,,30.7
2018-02-19,12,1439.8,0,31.982978171439605,,34.69134295108992,29.274613391789284,
2018-02-19,12,1439.8,0,30.5,30.5,,,30.5
2018-02-19,13,1497.06,0,32.78963419760569,,35.685850380609764,29.89341801460163,
2018-02-19,13,1497.06,0,31.0,31.1,,,30.9
2018-02-19,14,1577.6,0,33.283644895483675,,36.29490466566481,30.272385125302545,
2018-02-19,14,1577.6,0,31.1,31.0,,,31.2
2018-02-19,15,1454.87,0,33.45,,36.5,30.4,
2018-02-19,15,1454.87,0,30.95,31.0,,,30.9
2018-02-19,16,1494.9,0,32.72,,35.6,29.84,
2018-02-19,16,1494.9,0,30.450000000000003,30.1,,,30.8
2018-02-19,17,1482.37,0,31.990000000000002,,34.7,29.28,
2018-02-19,17,1482.37,0,29.85,29.6,,,30.1
2018-02-19,18,1516.03,0,31.259999999999998,,33.8,28.72,
2018-02-19,18,1516.03,0,29.200000000000003,29.1,,,29.3
2018-02-19,19,1552.48,0,30.53,,32.9,28.16,
2018-02-19,19,1552.48,0,28.299999999999997,28.2,,,28.4
2018-02-19,20,1889.22,0,29.8,,32.0,27.6,
2018-02-19,20,1889.22,0,27.799999999999997,27.7,,,27.9
2018-02-19,21,1983.41,0,29.07,,31.1,27.04,
2018-02-19,21,1983.41,0,27.65,27.5,,,27.8
2018-02-19,22,2017.19,0,28.34,,30.2,26.48,
2018-02-19,22,2017.19,0,27.35,27.2,,,27.5
2018-02-19,23,1930.71,0,27.61,,29.3,25.92,
2018-02-19,23,1930.71,0,27.25,27.1,,,27.4
2018-02-19,24,1895.3,0,26.88,,28.4,25.36,
2018-02-19,24,1895.3,0,27.0,26.8,,,27.2
2018-02-20,1,1759.84,0,26.85,26.6,,,27.1
2018-02-20,2,1676.9,0,26.9,26.6,,,27.2
2018-02-20,3,1619.1,0,26.7,26.4,,,27.0
2018-02-20,4,1631.5,0,26.65,26.4,,,26.9
2018-02-20,5,1652.9,0,26.450000000000003,26.1,,,26.8
2018-02-20,6,1657.8,0,26.25,26.0,,,26.5
2018-02-20,7,1645.5,0,26.0,25.8,,,26.2
2018-02-20,8,1458.3,0,26.2,25.9,,,26.5
2018-02-20,9,1398.5,0,27.6,27.4,,,27.8
2018-02-20,10,1497.07,0,29.65,29.5,,,29.8
2018-02-20,11,1517.5,0,31.25,31.1,,,31.4
2018-02-20,12,1533.9,0,31.85,31.8,,,31.9
2018-02-20,13,1538.3,0,29.8,29.6,,,30.0
2018-02-20,14,1587.7,0,30.05,29.6,,,30.5
2018-02-20,15,1574.4,0,29.9,29.9,,,29.9
2018-02-20,16,1614.7,0,30.0,29.9,,,30.1
2018-02-20,17,1671.6,0,29.5,29.5,,,29.5
2018-02-20,18,1587.1,0,28.9,28.8,,,29.0
2018-02-20,19,1607.5,0,28.35,28.5,,,28.2
2018-02-20,20,1956.68,0,27.799999999999997,27.9,,,27.7
2018-02-20,21,2022.05,0,27.5,27.5,,,27.5
2018-02-20,22,2036.9,0,27.2,27.0,,,27.4
2018-02-20,23,2064.9,0,26.85,26.6,,,27.1
2018-02-20,24,1815.0,0,26.65,26.4,,,26.9
2018-02-21,1,1739.9,0,25.583333333333332,,25.9,25.266666666666666,
2018-02-21,1,1739.9,0,25.75,25.3,,,26.2
2018-02-21,2,1511.6,0,24.826666666666668,,24.94,24.71333333333333,
2018-02-21,2,1511.6,0,25.299999999999997,24.9,,,25.7
2018-02-21,3,1557.0,0,24.07,,23.98,24.16,
2018-02-21,3,1557.0,0,25.049999999999997,24.7,,,25.4
2018-02-21,4,1468.7,0,23.313333333333333,,23.02,23.606666666666666,
2018-02-21,4,1468.7,0,24.95,24.7,,,25.2
2018-02-21,5,1439.9,0,22.556666666666665,,22.06,23.05333333333333,
2018-02-21,5,1439.9,0,25.0,24.8,,,25.2
2018-02-21,6,1474.0,0,21.8,,21.1,22.5,
2018-02-21,6,1474.0,0,25.05,24.8,,,25.3
2018-02-21,7,1556.1,0,23.770906816519663,,23.6005337584038,23.941279874635523,
2018-02-21,7,1556.1,0,25.049999999999997,24.9,,,25.2
2018-02-21,8,1406.0,0,25.68192862674634,,26.02509006388963,25.33876718960305,
2018-02-21,8,1406.0,0,25.5,25.2,,,25.8
2018-02-21,9,1374.4,0,27.475,,28.3,26.65,
2018-02-21,9,1374.4,0,26.8,26.5,,,27.1
2018-02-21,10,1435.3,0,29.09563936994222,,30.356141579486163,27.83513716039828,
2018-02-21,10,1435.3,0,28.65,28.4,,,28.9
2018-02-21,11,1461.2,0,30.494604429400404,,32.131039980913286,28.85816887788752,
2018-02-21,11,1461.2,0,30.15,29.8,,,30.5
2018-02-21,12,1362.0,0,31.629388332953376,,33.570765814495914,29.68801085141084,
2018-02-21,12,1362.0,0,31.200000000000003,30.8,,,31.6
2018-02-21,13,1335.4,0,32.46551124592006,,34.63157373931708,30.29944875252304,
2018-02-21,13,1335.4,0,31.299999999999997,31.4,,,31.2
2018-02-21,14,1415.1,0,32.97756799668856,,35.2812316433758,30.67390435000133,
2018-02-21,14,1415.1,0,31.7,31.9,,,31.5
2018-02-21,15,1442.2,0,33.15,,35.5,30.8,
2018-02-21,15,1442.2,0,30.85,30.9,,,30.8
2018-02-21,16,1432.6,0,32.39333333333333,,34.54,30.246666666666663,
2018-02-21,16,1432.6,0,30.5,31.0,,,30.0
2018-02-21,17,1442.8,0,31.636666666666663,,33.58,29.69333333333333,
2018-02-21,17,1442.8,0,30.0,29.9,,,30.1
2018-02-21,18,1493.0,0,30.880000000000003,,32.620000000000005,29.14,
2018-02-21,18,1493.0,0,29.0,29.0,,,29.0
2018-02-21,19,1445.0,0,30.123333333333335,,31.660000000000004,28.586666666666662,
2018-02-21,19,1445.0,0,28.15,28.1,,,28.2
2018-02-21,20,1806.74,0,29.366666666666667,,30.700000000000003,28.03333333333333,
2018-02-21,20,1806.74,0,27.65,27.6,,,27.7
2018-02-21,21,1822.66,0,28.61,,29.74,27.48,
2018-02-21,21,1822.66,0,27.5,27.4,,,27.6
2018-02-21,22,1883.4,0,27.85333333333333,,28.78,26.926666666666662,
2018-02-21,22,1883.4,0,27.35,27.2,,,27.5
2018-02-21,23,1908.9,0,27.096666666666664,,27.82,26.37333333333333,
2018-02-21,23,1908.9,0,27.2,27.0,,,27.4
2018-02-21,24,1788.9,0,26.34,,26.86,25.82,
2018-02-21,24,1788.9,0,26.950000000000003,26.8,,,27.1
2018-02-22,1,1679.7,0,26.35,26.0,,,26.7
2018-02-22,2,1635.7,0,26.1,25.8,,,26.4
2018-02-22,3,1517.8,0,25.7,25.4,,,26.0
2018-02-22,4,1454.3,0,25.35,25.0,,,25.7
2018-02-22,5,1491.97,0,25.3,25.0,,,25.6
2018-02-22,6,1540.37,0,25.15,24.8,,,25.5
2018-02-22,7,1552.87,0,24.8,24.5,,,25.1
2018-02-22,8,1360.01,0,25.2,24.9,,,25.5
2018-02-22,9,1361.16,0,26.7,26.4,,,27.0
2018-02-22,10,1315.33,0,28.549999999999997,28.4,,,28.7
2018-02-22,11,1381.07,0,30.05,30.0,,,30.1
2018-02-22,12,1402.02,0,30.95,30.9,,,31.0
2018-02-22,13,1396.92,0,31.2,31.4,,,31.0
2018-02-22,14,1402.76,0,31.55,31.6,,,31.5
2018-02-22,15,1407.68,0,31.4,31.2,,,31.6
2018-02-22,16,1436.44,0,30.799999999999997,30.9,,,30.7
2018-02-22,17,1424.88,0,30.200000000000003,30.3,,,30.1
2018-02-22,18,1433.41,0,29.15,29.2,,,29.1
2018-02-22,19,1520.71,0,28.15,28.1,,,28.2
2018-02-22,20,1783.74,0,27.799999999999997,27.7,,,27.9
2018-02-22,21,1903.48,0,27.65,27.5,,,27.8
2018-02-22,22,1905.11,0,27.5,27.4,,,27.6
2018-02-22,23,1895.36,0,27.299999999999997,27.2,,,27.4
2018-02-22,24,1926.09,0,27.15,27.0,,,27.3
2018-02-23,1,1803.67,0,27.549999999999997,,28.133333333333333,26.966666666666665,
2018-02-23,1,1803.67,0,26.8,26.6,,,27.0
2018-02-23,2,1712.5,0,27.009999999999998,,27.506666666666668,26.51333333333333,
2018-02-23,2,1712.5,0,26.7,26.4,,,27.0
2018-02-23,3,1665.9,0,26.47,,26.88,26.06,
2018-02-23,3,1665.9,0,26.3,26.0,,,26.6
2018-02-23,4,1583.3,0,25.93,,26.25333333333333,25.606666666666666,
2018-02-23,4,1583.3,0,26.0,25.6,,,26.4
2018-02-23,5,1403.4,0,25.389999999999997,,25.626666666666665,25.15333333333333,
2018-02-23,5,1403.4,0,25.6,25.2,,,26.0
2018-02-23,6,1496.7,0,24.85,,25.0,24.7,
2018-02-23,6,1496.7,0,25.3,25.0,,,25.6
2018-02-23,7,1514.0,0,26.256550239102133,,26.632292870069143,25.880807608135125,
2018-02-23,7,1514.0,0,25.15,24.8,,,25.5
2018-02-23,8,1439.4,0,27.620363160937917,,28.214989347261287,27.025736974614546,
2018-02-23,8,1439.4,0,25.450000000000003,25.1,,,25.8
2018-02-23,9,1426.4,0,28.9,,29.7,28.1,
2018-02-23,9,1426.4,0,26.950000000000003,26.6,,,27.3
2018-02-23,10,1491.2,0,30.056579638460967,,31.042203531053467,29.070955745868467,
2018-02-23,10,1491.2,0,28.9,28.7,,,29.1
2018-02-23,11,1460.8,0,31.054959989263722,,32.20081776531839,29.90910221320905,
2018-02-23,11,1460.8,0,30.65,30.5,,,30.8
2018-02-23,12,1536.8,0,31.864805770653952,,33.14063879557372,30.588972745734186,
2018-02-23,12,1536.8,0,31.85,31.9,,,31.8
2018-02-23,13,1476.4,0,32.46151022836585,,33.83311063538754,31.089909821344172,
2018-02-23,13,1476.4,0,31.549999999999997,31.9,,,31.2
2018-02-23,14,1443.8,0,32.826942799398886,,34.257192878314754,31.396692720483014,
2018-02-23,14,1443.8,0,30.1,29.8,,,30.4
2018-02-23,15,1498.0,0,32.95,,34.4,31.5,
2018-02-23,15,1498.0,0,31.049999999999997,31.2,,,30.9
2018-02-23,16,1590.6,0,32.41,,33.77333333333333,31.046666666666667,
2018-02-23,16,1590.6,0,31.25,31.3,,,31.2
2018-02-23,17,1526.9,0,31.87,,33.14666666666667,30.593333333333334,
2018-02-23,17,1526.9,0,30.15,30.3,,,30.0
2018-02-23,18,1516.7,0,31.330000000000002,,32.52,30.14,
2018-02-23,18,1516.7,0,29.45,29.5,,,29.4
2018-02-23,19,1524.3,0,30.79,,31.89333333333333,29.686666666666667,
2018-02-23,19,1524.3,0,28.6,28.5,,,28.7
2018-02-23,20,1827.45,0,30.25,,31.266666666666666,29.23333333333333,
2018-02-23,20,1827.45,0,28.15,28.0,,,28.3
2018-02-23,21,1884.92,0,29.71,,30.64,28.78,
2018-02-23,21,1884.92,0,27.95,27.9,,,28.0
2018-02-23,22,1852.6,0,29.169999999999998,,30.01333333333333,28.326666666666668,
2018-02-23,22,1852.6,0,27.7,27.5,,,27.9
2018-02-23,23,1870.0,0,28.63,,29.386666666666667,27.87333333333333,
2018-02-23,23,1870.0,0,27.5,27.5,,,27.5
2018-02-23,24,1919.4,0,28.090000000000003,,28.76,27.42,
2018-02-23,24,1919.4,0,27.35,27.1,,,27.6
2018-02-24,1,1754.6,0,26.950000000000003,26.6,,,27.3
2018-02-24,2,1728.0,0,26.75,26.5,,,27.0
2018-02-24,3,1642.7,0,26.4,26.0,,,26.8
2018-02-24,4,1563.2,0,26.15,25.8,,,26.5
2018-02-24,5,1547.1,0,26.049999999999997,25.7,,,26.4
2018-02-24,6,1542.9,0,25.8,25.5,,,26.1
2018-02-24,7,1460.3,0,25.35,25.2,,,25.5
2018-02-24,8,1364.1,0,25.2,24.7,,,25.7
2018-02-24,9,1308.1,0,25.75,25.5,,,26.0
2018-02-24,10,1315.1,0,27.1,26.8,,,27.4
2018-02-24,11,1340.8,0,28.450000000000003,28.3,,,28.6
2018-02-24,12,1395.0,0,29.65,29.2,,,30.1
2018-02-24,13,1372.3,0,29.35,30.0,,,28.7
2018-02-24,14,1451.1,0,28.45,28.5,,,28.4
2018-02-24,15,1483.7,0,28.7,28.4,,,29.0
2018-02-24,16,1468.4,0,28.35,28.3,,,28.4
2018-02-24,17,1477.0,0,27.65,27.5,,,27.8
2018-02-24,18,1492.7,0,27.4,27.3,,,27.5
2018-02-24,19,1444.3,0,27.2,27.0,,,27.4
2018-02-24,20,1838.01,0,26.75,26.5,,,27.0
2018-02-24,21,1887.27,0,26.7,26.5,,,26.9
2018-02-24,22,1915.4,0,26.450000000000003,26.1,,,26.8
2018-02-24,23,1863.8,0,26.15,25.8,,,26.5
2018-02-24,24,1833.0,0,25.799999999999997,25.4,,,26.2
2018-02-25,1,1762.5,0,26.450000000000003,26.1,,,26.8
2018-02-25,2,1659.19,0,26.2,25.9,,,26.5
2018-02-25,3,1539.39,0,26.0,25.8,,,26.2
2018-02-25,4,1609.22,0,25.8,25.5,,,26.1
2018-02-25,5,1449.24,0,25.6,25.2,,,26.0
2018-02-25,6,1482.74,0,25.35,25.0,,,25.7
2018-02-25,7,1479.04,0,25.25,25.0,,,25.5
2018-02-25,8,1321.45,0,25.5,25.2,,,25.8
2018-02-25,9,1369.28,0,26.05,26.0,,,26.1
2018-02-25,10,1312.24,0,27.299999999999997,27.4,,,27.2
2018-02-25,11,1374.36,0,29.3,29.6,,,29.0
2018-02-25,12,1329.42,0,30.5,31.0,,,30.0
2018-02-25,13,1404.07,0,31.75,32.0,,,31.5
2018-02-25,14,1454.86,0,31.75,32.0,,,31.5
2018-02-25,15,1472.07,0,30.95,31.5,,,30.4
2018-02-25,16,1503.57,0,31.2,30.9,,,31.5
2018-02-25,17,1481.07,0,30.35,30.8,,,29.9
2018-02-25,18,1471.88,0,29.2,29.2,,,29.2
2018-02-25,19,1462.59,0,28.4,28.5,,,28.3
2018-02-25,20,1762.11,0,28.1,28.1,,,28.1
2018-02-25,21,1725.14,0,27.95,27.9,,,28.0
2018-02-25,22,1814.83,0,27.75,27.6,,,27.9
2018-02-25,23,1696.57,0,27.55,27.5,,,27.6
2018-02-25,24,1707.05,0,27.1,26.7,,,27.5
2018-02-26,1,1642.61,0,25.1,,25.1,,
2018-02-26,1,1642.61,0,26.3,26.0,,,26.6
2018-02-26,2,1498.9,0,24.52,,24.52,,
2018-02-26,2,1498.9,0,25.95,25.7,,,26.2
2018-02-26,3,1499.3,0,23.94,,23.94,,
2018-02-26,3,1499.3,0,25.75,25.5,,,26.0
2018-02-26,4,1441.7,0,23.36,,23.36,,
2018-02-26,4,1441.7,0,25.7,25.5,,,25.9
2018-02-26,5,1441.2,0,22.78,,22.78,,
2018-02-26,5,1441.2,0,25.549999999999997,25.2,,,25.9
2018-02-26,6,1491.9,0,22.2,,22.2,,
2018-02-26,6,1491.9,0,25.450000000000003,25.1,,,25.8
2018-02-26,7,1532.9,0,23.71073914570229,,23.71073914570229,,
2018-02-26,7,1532.9,0,25.3,25.0,,,25.6
2018-02-26,8,1346.8,0,25.17557524693332,,25.17557524693332,,
2018-02-26,8,1346.8,0,25.3,25.1,,,25.5
2018-02-26,9,1348.0,0,26.55,,26.55,,
2018-02-26,9,1348.0,0,25.9,25.7,,,26.1
2018-02-26,10,1376.1,0,27.79225220427289,,27.79225220427289,,
2018-02-26,10,1376.1,0,26.9,26.8,,,27.0
2018-02-26,11,1342.9,0,28.864586655135103,,28.864586655135103,,
2018-02-26,11,1342.9,0,28.45,28.5,,,28.4
2018-02-26,12,1401.8,0,29.734421012924614,,29.734421012924614,,
2018-02-26,12,1401.8,0,29.85,29.8,,,29.9
2018-02-26,13,1425.2,0,30.3753258008374,,30.3753258008374,,
2018-02-26,13,1425.2,0,27.85,27.3,,,28.4
2018-02-26,14,1469.0,0,30.76782745120621,,30.76782745120621,,
2018-02-26,14,1469.0,0,28.299999999999997,28.4,,,28.2
2018-02-26,15,1499.6,0,30.9,,30.9,,
2018-02-26,15,1499.6,0,29.0,29.2,,,28.8
2018-02-26,16,1556.1,0,30.32,,30.32,,
2018-02-26,16,1556.1,0,29.3,29.6,,,29.0
2018-02-26,17,1357.3,0,29.74,,29.74,,
2018-02-26,17,1357.3,0,28.05,28.5,,,27.6
2018-02-26,18,1327.4,0,29.16,,29.16,,
2018-02-26,18,1327.4,0,27.15,27.1,,,27.2
2018-02-26,19,1534.0,0,28.58,,28.58,,
2018-02-26,19,1534.0,0,26.2,25.9,,,26.5
2018-02-26,20,1890.89,0,28.0,,28.0,,
2018-02-26,20,1890.89,0,25.1,24.9,,,25.3
2018-02-26,21,1879.35,0,27.42,,27.42,,
2018-02-26,21,1879.35,0,25.0,25.0,,,25.0
2018-02-26,22,1947.9,0,26.84,,26.84,,
2018-02-26,22,1947.9,0,24.9,24.8,,,25.0
2018-02-26,23,1814.2,0,26.26,,26.26,,
2018-02-26,23,1814.2,0,24.75,24.6,,,24.9
2018-02-26,24,1760.2,0,25.68,,25.68,,
2018-02-26,24,1760.2,0,24.75,24.6,,,24.9
2018-02-27,1,1677.1,0,26.3,26.1,,,26.5
2018-02-27,2,1616.6,0,26.2,25.9,,,26.5
2018-02-27,3,1567.3,0,25.8,25.5,,,26.1
2018-02-27,4,1487.2,0,25.450000000000003,25.1,,,25.8
2018-02-27,5,1492.2,0,25.25,25.0,,,25.5
2018-02-27,6,1530.7,0,25.1,24.8,,,25.4
2018-02-27,7,1589.9,0,25.1,24.8,,,25.4
2018-02-27,8,1470.3,0,25.25,25.0,,,25.5
2018-02-27,9,1500.3,0,25.7,25.5,,,25.9
2018-02-27,10,1472.7,0,26.799999999999997,26.4,,,27.2
2018-02-27,11,1472.5,0,28.55,28.1,,,29.0
2018-02-27,12,1501.3,0,29.7,29.5,,,29.9
2018-02-27,13,1517.2,0,30.5,30.5,,,30.5
2018-02-27,14,1534.7,0,30.0,30.0,,,30.0
2018-02-27,15,1535.8,0,29.450000000000003,29.3,,,29.6
2018-02-27,16,1481.4,0,29.5,29.5,,,29.5
2018-02-27,17,1518.4,0,29.05,29.0,,,29.1
2018-02-27,18,1555.5,0,28.35,28.2,,,28.5
